"depth.grid","Temp.smt","Sal.smt"
0.37,-0.0218583932296872,0.155247974325532
0.38,-0.0218749070096971,0.155245629698592
0.39,-0.0218902529319264,0.155243357035328
0.4,-0.0219044103158291,0.155241160976407
0.41,-0.0219173584808592,0.155239046162496
0.42,-0.0219290767464704,0.155237017234261
0.43,-0.0219395444321167,0.155235078832369
0.44,-0.021948740857252,0.155233235597487
0.45,-0.0219566453413301,0.155231492170282
0.46,-0.021963237203805,0.15522985319142
0.47,-0.0219684957641305,0.155228323301567
0.48,-0.0219724003417605,0.155226907141392
0.49,-0.0219749302561489,0.15522560935156
0.5,-0.0219760648267496,0.155224434572738
0.51,-0.0219757833730165,0.155223387445593
0.52,-0.0219740652144035,0.155222472610792
0.53,-0.0219708896703644,0.155221694709
0.54,-0.0219662360603532,0.155221058380886
0.55,-0.0219600837038237,0.155220568267115
0.56,-0.0219524119202298,0.155220229008355
0.57,-0.0219432000290255,0.155220045245272
0.58,-0.0219324273496645,0.155220021618533
0.59,-0.0219200655722167,0.155220160535873
0.6,-0.0219057923138218,0.155220378231867
0.61,-0.0218895081737384,0.15522065590109
0.62,-0.0218712990303432,0.155221028912469
0.63,-0.0218512507620132,0.155221532634928
0.64,-0.021829449247125,0.155222202437392
0.65,-0.0218059803640555,0.155223073688785
0.66,-0.0217809299911816,0.155224181758033
0.67,-0.0217543840068801,0.155225562014059
0.68,-0.0217264282895278,0.15522724982579
0.69,-0.0216971487175015,0.15522928056215
0.7,-0.021666631169178,0.155231689592064
0.71,-0.0216349615229343,0.155234512284456
0.72,-0.0216019629010504,0.155237810408771
0.73,-0.0215639053503071,0.155241969022696
0.74,-0.0215205466352473,0.155246946507193
0.75,-0.0214731789264195,0.155252537283305
0.76,-0.0214230943943719,0.155258535772076
0.77,-0.0213715852096528,0.155264736394551
0.78,-0.0213199435428106,0.155270933571774
0.79,-0.0212694615643936,0.155276921724787
0.8,-0.02122143144495,0.155282495274636
0.81,-0.0211771453550283,0.155287448642364
0.82,-0.0211360646176077,0.155291644900432
0.83,-0.0210930741834358,0.155296102816838
0.84,-0.0210466940962413,0.155300841168293
0.85,-0.0209978923360887,0.155305770288503
0.86,-0.0209476368830426,0.155310800511177
0.87,-0.0208968957171672,0.155315842170022
0.88,-0.020846636818527,0.155320805598747
0.89,-0.0207978281671866,0.155325601131058
0.9,-0.0207514377432102,0.155330139100664
0.91,-0.0207084335266624,0.155334329841273
0.92,-0.0206697834976075,0.155338083686592
0.93,-0.0206364556361101,0.155341310970329
0.94,-0.0206081297007123,0.155345216598175
0.95,-0.0205831865037883,0.155350984813061
0.96,-0.0205611596799005,0.155357826013263
0.97,-0.0205415896479663,0.155364941859227
0.98,-0.0205240168269033,0.155371534011395
0.99,-0.020507981635629,0.155376804130212
1,-0.020493024493061,0.155379953876122
1.01,-0.0204786858181166,0.155380184909568
1.02,-0.0204645060297135,0.155376698890995
1.03,-0.0204500682153638,0.155368722551319
1.04,-0.0204379140633374,0.155357423296452
1.05,-0.0204294813291997,0.155343945167928
1.06,-0.0204243934535244,0.155328484827423
1.07,-0.020422273876885,0.155311238936612
1.08,-0.0204227460398553,0.15529240415717
1.09,-0.0204254333830089,0.155272177150774
1.1,-0.0204299593469195,0.155250754579099
1.11,-0.0204359473721609,0.15522833310382
1.12,-0.0204430208993066,0.155205109386613
1.13,-0.0204508033689304,0.155181280089154
1.14,-0.0204589182216059,0.155157041873118
1.15,-0.0204669888979067,0.15513259140018
1.16,-0.0204746388384067,0.155108125332017
1.17,-0.0204814914836794,0.155083840330304
1.18,-0.0204871702742986,0.155059933056716
1.19,-0.0204912986508378,0.155036600172929
1.2,-0.0204935000538709,0.155014038340618
1.21,-0.0204933979239714,0.154992444221459
1.22,-0.020490615701713,0.154972014477129
1.23,-0.0204853639072069,0.154952170307623
1.24,-0.0204797608580391,0.154930108473665
1.25,-0.0204739847468925,0.154905962330244
1.26,-0.0204679744356871,0.154880199109451
1.27,-0.020461668786343,0.154853286043373
1.28,-0.0204550066607802,0.1548256903641
1.29,-0.0204479269209189,0.154797879303718
1.3,-0.0204403684286793,0.154770320094317
1.31,-0.0204322700459813,0.154743479967986
1.32,-0.020423570634745,0.154717826156813
1.33,-0.0204142090568907,0.154693825892886
1.34,-0.0204041241743383,0.154671946408294
1.35,-0.0203932548490081,0.154652654935125
1.36,-0.0203815379471733,0.154636416523578
1.37,-0.0203680567287846,0.154622586849828
1.38,-0.0203522977910755,0.154610322688245
1.39,-0.0203345680401983,0.15459953270723
1.4,-0.0203151743823055,0.154590125575182
1.41,-0.0202944237235492,0.154582009960505
1.42,-0.020272622970082,0.154575094531597
1.43,-0.020250079028056,0.154569287956861
1.44,-0.0202270988036237,0.154564498904698
1.45,-0.0202039892029374,0.154560636043508
1.46,-0.0201810571321495,0.154557608041692
1.47,-0.0201586094974122,0.154555323567651
1.48,-0.020136953204878,0.154553691289787
1.49,-0.0201163951606991,0.154552619876501
1.5,-0.0200972422710279,0.154552017996192
1.51,-0.0200798014420168,0.154551794317264
1.52,-0.0200638353025004,0.154552814947558
1.53,-0.0200463149320289,0.154560325117717
1.54,-0.0200273586916757,0.154573179177447
1.55,-0.0200077307202675,0.154589030772197
1.56,-0.019988195156631,0.154605533547414
1.57,-0.019969516139593,0.154620341148545
1.58,-0.01995245780798,0.154631107221037
1.59,-0.0199377806922114,0.154635521429518
1.6,-0.0199253464931235,0.154638576345842
1.61,-0.0199145155954884,0.154644523028963
1.62,-0.019905030114068,0.154652573257169
1.63,-0.0198966321636246,0.15466193880875
1.64,-0.0198890638589201,0.154671831461996
1.65,-0.0198820673147166,0.154681462995196
1.66,-0.0198753846457761,0.154690045186641
1.67,-0.0198687579668609,0.154696789814619
1.68,-0.0198619293927328,0.15470090865742
1.69,-0.0198546410381541,0.154701613493334
1.7,-0.0198466350178868,0.154698116100651
1.71,-0.0198376534466929,0.154689628257659
1.72,-0.0198284422717882,0.154675100562593
1.73,-0.0198202838619913,0.154654294826349
1.74,-0.0198130764195063,0.154627957006912
1.75,-0.0198067064636661,0.15459683863934
1.76,-0.0198010605138035,0.154561691258692
1.77,-0.0197960250892516,0.154523266400027
1.78,-0.0197914867093431,0.154482315598404
1.79,-0.0197873318934109,0.154439590388881
1.8,-0.0197834471607881,0.154395842306517
1.81,-0.0197797190308073,0.15435182288637
1.82,-0.0197760340228017,0.154308283663499
1.83,-0.0197722786561039,0.154265976172964
1.84,-0.019768339450047,0.154225651949822
1.85,-0.0197641029239638,0.154188062529132
1.86,-0.0197594555971872,0.154153959445953
1.87,-0.0197542839890502,0.154124094235345
1.88,-0.0197484746188855,0.154099218432364
1.89,-0.0197419140060261,0.154080083572071
1.9,-0.0197354816078644,0.154065161068134
1.91,-0.0197308045299819,0.154050310289004
1.92,-0.0197271807626394,0.154035976081745
1.93,-0.0197238362472636,0.154022756858601
1.94,-0.0197199969252811,0.154011251031818
1.95,-0.0197148887381188,0.154002057013642
1.96,-0.0197077376272033,0.153995773216318
1.97,-0.0196978482027869,0.153993329014033
1.98,-0.0196865014038172,0.154001961200092
1.99,-0.019674488604861,0.154021800641917
2,-0.0196619189334885,0.15404936234216
2.01,-0.0196489015172698,0.154081161303473
2.02,-0.0196355454837752,0.154113712528509
2.03,-0.0196219599605747,0.154143531019917
2.04,-0.0196082540752385,0.154167131780351
2.05,-0.0195944340360532,0.154181466404101
2.06,-0.0195781892224247,0.154194528531104
2.07,-0.0195589814560051,0.154209892366886
2.08,-0.0195374202091252,0.15422673076922
2.09,-0.0195141149541159,0.154244216595884
2.1,-0.0194896751633081,0.154261522704652
2.11,-0.0194647103090328,0.154277821953299
2.12,-0.0194398298636207,0.154292287199601
2.13,-0.0194156432994029,0.154304091301333
2.14,-0.0193927600887102,0.154312407116271
2.15,-0.0193717897038734,0.15431640750219
2.16,-0.0193518865697891,0.154315529748174
2.17,-0.0193310332309035,0.154310294731349
2.18,-0.0193095153958823,0.154301443175548
2.19,-0.0192876580628953,0.154289713796627
2.2,-0.0192657862301122,0.154275845310444
2.21,-0.0192442248957025,0.154260576432856
2.22,-0.0192232990578362,0.154244645879719
2.23,-0.0192033337146827,0.154228792366891
2.24,-0.019184653864412,0.154213754610229
2.25,-0.0191675845051935,0.15420027132559
2.26,-0.0191524506351972,0.15418908122883
2.27,-0.0191395772525925,0.154180923035806
2.28,-0.0191290780496717,0.154175981834769
2.29,-0.019120542335992,0.154173295440759
2.3,-0.0191135975831297,0.154172156359332
2.31,-0.0191078732415649,0.154171863104229
2.32,-0.0191029987617772,0.154171714189186
2.33,-0.0190986035942466,0.154171008127944
2.34,-0.019094317189453,0.154169043434241
2.35,-0.019089768997876,0.154165118621816
2.36,-0.0190845884699957,0.154158532204408
2.37,-0.0190784064143636,0.154148584308887
2.38,-0.0190716829959177,0.154135681665361
2.39,-0.0190650399136529,0.15412086812044
2.4,-0.0190585276138453,0.154104610770836
2.41,-0.0190521965427712,0.154087376713264
2.42,-0.0190460971467067,0.154069633044438
2.43,-0.0190402798719279,0.154051846861072
2.44,-0.019034795164711,0.154034485259878
2.45,-0.0190296934713321,0.154018015337572
2.46,-0.0190250252380674,0.154002904190866
2.47,-0.0190208409111931,0.153989618916475
2.48,-0.0190177469843581,0.153976089999476
2.49,-0.0190164407003567,0.153958889135776
2.5,-0.019016494547668,0.153939031090738
2.51,-0.0190174647467907,0.153917599514566
2.52,-0.0190189075182237,0.153895678057463
2.53,-0.0190203790824656,0.153874350369632
2.54,-0.0190214356600153,0.153854700101276
2.55,-0.0190216334713714,0.153837810902599
2.56,-0.0190205287370329,0.153824766423803
2.57,-0.0190180366768392,0.153816423422019
2.58,-0.019015531082982,0.153812129058495
2.59,-0.0190131433560898,0.153811212736291
2.6,-0.0190108079633699,0.153813083543364
2.61,-0.0190084593720293,0.153817150567666
2.62,-0.0190060320492751,0.153822822897152
2.63,-0.0190034604623144,0.153829509619777
2.64,-0.0190006790783543,0.153836619823495
2.65,-0.0189976223646019,0.15384356259626
2.66,-0.0189942247882643,0.153849747026028
2.67,-0.0189904208165486,0.153854582200752
2.68,-0.018986144916662,0.153857477208386
2.69,-0.0189813315558114,0.153857841136886
2.7,-0.0189756516576154,0.153856021866858
2.71,-0.0189676681116207,0.153857004347698
2.72,-0.0189576537631995,0.153860764820049
2.73,-0.01894618158279,0.153866288919626
2.74,-0.0189338245408304,0.153872562282141
2.75,-0.0189211556077586,0.153878570543306
2.76,-0.0189087477540129,0.153883299338834
2.77,-0.0188971739500314,0.153885734304438
2.78,-0.0188870071662521,0.15388486107583
2.79,-0.0188788203731133,0.153879665288724
2.8,-0.0188727781509106,0.153869175980112
2.81,-0.0188672628529624,0.153853333217657
2.82,-0.0188621188415301,0.153832936423747
2.83,-0.0188574424010257,0.153808818190688
2.84,-0.0188533298158611,0.153781811110783
2.85,-0.0188498773704482,0.153752747776338
2.86,-0.018847181349199,0.153722460779656
2.87,-0.0188453380365254,0.153691782713043
2.88,-0.0188444437168395,0.153661546168803
2.89,-0.0188445946745532,0.15363258373924
2.9,-0.0188458871940783,0.153605728016659
2.91,-0.018848417559827,0.153581811593364
2.92,-0.0188527818672238,0.153560495178425
2.93,-0.01886233801082,0.153533786840115
2.94,-0.0188757398308956,0.15350261777197
2.95,-0.0188905955994881,0.153470179748605
2.96,-0.0189045135886351,0.15343966454463
2.97,-0.018915102070374,0.153414263934659
2.98,-0.018920692742843,0.153396342053123
2.99,-0.0189259096466318,0.153380839255397
3,-0.0189318555964272,0.153366312065031
3.01,-0.0189382957087755,0.153352808576945
3.02,-0.0189449951002232,0.153340376886064
3.03,-0.0189517188873167,0.15332906508731
3.04,-0.0189582321866023,0.153318921275607
3.05,-0.0189643001146266,0.153309993545876
3.06,-0.0189696877879359,0.153302329993043
3.07,-0.0189741603230766,0.153295978712028
3.08,-0.0189774828365952,0.153290987797756
3.09,-0.0189794204450381,0.153287405345148
3.1,-0.0189797382649517,0.153285279449129
3.11,-0.0189782014128825,0.153284658204622
3.12,-0.0189745750053767,0.153285589706548
3.13,-0.0189680413096923,0.153289138768805
3.14,-0.018957138195723,0.153297837697729
3.15,-0.0189423456730835,0.15331118180648
3.16,-0.0189242518440974,0.153328487675712
3.17,-0.0189034448110882,0.153349071886078
3.18,-0.0188805126763797,0.153372251018231
3.19,-0.0188560435422954,0.153397341652824
3.2,-0.0188306255111588,0.153423660370511
3.21,-0.0188048466852937,0.153450523751946
3.22,-0.0187792951670237,0.153477248377781
3.23,-0.0187545590586722,0.153503150828671
3.24,-0.0187312264625631,0.153527547685267
3.25,-0.0187098854810197,0.153549755528225
3.26,-0.0186911242163659,0.153569090938196
3.27,-0.0186755307709251,0.153584870495835
3.28,-0.018663693247021,0.153596410781795
3.29,-0.0186561998421434,0.153603028394027
3.3,-0.0186564328696408,0.153604844357811
3.31,-0.0186658966076299,0.153602811682303
3.32,-0.0186824666107364,0.153597513945845
3.33,-0.018704018433586,0.153589534726777
3.34,-0.0187284276308043,0.153579457603443
3.35,-0.0187535697570169,0.153567866154184
3.36,-0.0187773203668495,0.153555343957341
3.37,-0.0187975550149276,0.153542474591258
3.38,-0.0188121492558769,0.153529841634276
3.39,-0.018820950938346,0.153516883798538
3.4,-0.0188304309641799,0.153499638914436
3.41,-0.0188405183695164,0.153478509319783
3.42,-0.0188503061726299,0.153454410169631
3.43,-0.0188588873917948,0.153428256619027
3.44,-0.0188653550452856,0.153400963823021
3.45,-0.0188688021513767,0.153373446936661
3.46,-0.0188683217283425,0.153346621114998
3.47,-0.0188630067944575,0.153321401513079
3.48,-0.01884841969524,0.153296869281002
3.49,-0.0188125725124726,0.15326587676862
3.5,-0.0187889831515899,0.153241707911856
3.51,-0.0187635731293194,0.15322252335457
3.52,-0.0187298724893624,0.153204737921468
3.53,-0.0186927081177504,0.153187751341105
3.54,-0.018656906900515,0.153170963342036
3.55,-0.0186272957236877,0.153153773652816
3.56,-0.0186086511944232,0.153135580400508
3.57,-0.0185925452659926,0.153115653608409
3.58,-0.0185730830633452,0.153094372280356
3.59,-0.0185545121472925,0.153072663450527
3.6,-0.0185410800786462,0.153051454153102
3.61,-0.0185370674107912,0.153031983625475
3.62,-0.0185448003865293,0.153017283509686
3.63,-0.0185622184527184,0.153006807358106
3.64,-0.0185867839897493,0.152999181847056
3.65,-0.0186159593780124,0.152993033652858
3.66,-0.0186472069978985,0.152986989451832
3.67,-0.0186779892297982,0.152979675920299
3.68,-0.0187057684541021,0.15296971973458
3.69,-0.0187280070512009,0.152955747570996
3.7,-0.0187421921552146,0.152936568382756
3.71,-0.0187474536866384,0.152917058537105
3.72,-0.0187448274103171,0.152899733276551
3.73,-0.0187353350865552,0.152884331668427
3.74,-0.0187199984756575,0.152870592780064
3.75,-0.0186998393379285,0.152858255678795
3.76,-0.0186758794336727,0.15284705943195
3.77,-0.0186491405231948,0.152836743106863
3.78,-0.0186206443667993,0.152827045770864
3.79,-0.0185914127247909,0.152817706491287
3.8,-0.0185624673574742,0.152808464335462
3.81,-0.0185348300251537,0.152799058370722
3.82,-0.018509522488134,0.152789227664398
3.83,-0.0184875665067197,0.152778711283823
3.84,-0.0184699838412154,0.152767248296329
3.85,-0.0184574026397297,0.152754575106899
3.86,-0.0184477623622484,0.152740588307753
3.87,-0.0184401599225391,0.15272547804566
3.88,-0.0184340690292262,0.152709458517308
3.89,-0.0184297915717339,0.152692021773866
3.9,-0.0184262280574929,0.152674357180346
3.91,-0.0184282898072517,0.152651139272508
3.92,-0.0184349647493459,0.152623602413112
3.93,-0.0184451997583473,0.152592896313391
3.94,-0.0184579417088277,0.152560170684576
3.95,-0.0184721374753587,0.152526575237899
3.96,-0.0184867339325122,0.152493259684592
3.97,-0.0185006779548599,0.152461373735887
3.98,-0.0185129164169735,0.152432067103016
3.99,-0.0185223961934249,0.15240648949721
4,-0.0185280641587858,0.152385790629702
4.01,-0.0185307105917051,0.152369344431412
4.02,-0.0185330335291704,0.152354583430589
4.03,-0.0185351183014721,0.152341380972299
4.04,-0.0185370027036144,0.15232965557944
4.05,-0.0185387245306015,0.15231932577491
4.06,-0.0185403215774375,0.152310310081606
4.07,-0.0185418316391268,0.152302527022425
4.08,-0.0185432925106736,0.152295895120267
4.09,-0.018544741987082,0.152290332898027
4.1,-0.0185462178633563,0.152285758878604
4.11,-0.0185477579345007,0.152282091584895
4.12,-0.0185493999955194,0.152279249539797
4.13,-0.0185511818414167,0.152277151266209
4.14,-0.0185531412671967,0.152275715287028
4.15,-0.0185553160678637,0.152274860125152
4.16,-0.0185577440384219,0.152274504303478
4.17,-0.0185604629738756,0.152274566344903
4.18,-0.0185635106692289,0.152274964772326
4.19,-0.018566924919486,0.152275618108643
4.2,-0.0185707435196512,0.152276444876753
4.21,-0.0185750042647288,0.152277363599553
4.22,-0.0185797449497228,0.152278292799941
4.23,-0.0185850033696376,0.152279151000814
4.24,-0.0185908173194774,0.15227985672507
4.25,-0.0185972396169377,0.152280458948299
4.26,-0.0186045610801009,0.152283492265749
4.27,-0.0186127153286227,0.152289420106795
4.28,-0.0186214829277781,0.152297524895
4.29,-0.0186306444428422,0.152307089053925
4.3,-0.0186399804390898,0.152317395007131
4.31,-0.018649271481796,0.15232772517818
4.32,-0.0186582981362358,0.152337361990634
4.33,-0.0186668409676841,0.152345587868054
4.34,-0.018674680541416,0.152351685234001
4.35,-0.0186815974227065,0.152354936512039
4.36,-0.0186873721768305,0.152354624125727
4.37,-0.0186918336131416,0.1523503715189
4.38,-0.0186951317075855,0.152343526829905
4.39,-0.0186974020259085,0.152334571948828
4.4,-0.0186987600420969,0.152323801902855
4.41,-0.0186993212301369,0.152311511719172
4.42,-0.0186992010640148,0.152297996424968
4.43,-0.0186985150177167,0.152283551047427
4.44,-0.0186973785652289,0.152268470613738
4.45,-0.0186959071805377,0.152253050151086
4.46,-0.0186942163376293,0.152237584686659
4.47,-0.01869242151049,0.152222369247642
4.48,-0.0186906381731059,0.152207698861224
4.49,-0.0186889817994633,0.15219386855459
4.5,-0.0186875678635484,0.152181173354928
4.51,-0.0186865118393476,0.152169908289423
4.52,-0.0186855285402746,0.152158391876229
4.53,-0.0186839837719664,0.152143523786188
4.54,-0.0186819537865235,0.152125943545551
4.55,-0.0186795306967548,0.152106371418127
4.56,-0.0186768066154692,0.152085527667728
4.57,-0.0186738736554757,0.152064132558164
4.58,-0.0186708239295832,0.152042906353245
4.59,-0.0186677495506007,0.152022569316781
4.6,-0.0186647426313372,0.152003841712584
4.61,-0.0186618952846016,0.151987443804464
4.62,-0.0186592996232029,0.151974095856231
4.63,-0.0186570477599499,0.151964518131695
4.64,-0.0186552318076518,0.151959430894667
4.65,-0.0186540513242651,0.151958852280019
4.66,-0.0186536238297642,0.151960868291949
4.67,-0.018653548568153,0.151964529216283
4.68,-0.0186534037391486,0.151968962469711
4.69,-0.0186527675424678,0.151973295468922
4.7,-0.0186512181778276,0.151976655630605
4.71,-0.0186488124271886,0.15198046780995
4.72,-0.01864647001311,0.15198945710143
4.73,-0.0186442084601769,0.152003240683014
4.74,-0.0186420003858219,0.152021204201357
4.75,-0.0186398184074776,0.152042733303114
4.76,-0.0186376351425765,0.152067213634941
4.77,-0.0186354232085511,0.152094030843491
4.78,-0.0186331552228341,0.152122570575421
4.79,-0.018630803802858,0.152152218477384
4.8,-0.0186283415660554,0.152182360196037
4.81,-0.0186257411298587,0.152212381378034
4.82,-0.0186229751117007,0.15224166767003
4.83,-0.0186200161290138,0.15226960471868
4.84,-0.0186168367992306,0.15229557817064
4.85,-0.0186134097397837,0.152318973672563
4.86,-0.0186097075681057,0.152339176871106
4.87,-0.018605702901629,0.152355573412923
4.88,-0.0186013683577862,0.152367548944668
4.89,-0.01859667655401,0.152374489112998
4.9,-0.0185915213665192,0.15237594496681
4.91,-0.0185853722482045,0.152372805963591
4.92,-0.0185782365497251,0.152365581282944
4.93,-0.0185702372969554,0.152354598200877
4.94,-0.01856149751577,0.1523401839934
4.95,-0.0185521402320433,0.15232266593652
4.96,-0.0185422884716499,0.152302371306245
4.97,-0.0185320652604642,0.152279627378584
4.98,-0.0185215936243608,0.152254761429546
4.99,-0.0185109965892141,0.152228100735139
5,-0.0185003971808988,0.15219997257137
5.01,-0.0184899184252892,0.152170704214249
5.02,-0.0184796833482598,0.152140622939784
5.03,-0.0184698149756853,0.152110056023983
5.04,-0.0184604363334401,0.152079330742855
