"depth.grid","Temp.smt","Sal.smt"
0.01,9.68816635584934,20.5346408143454
0.02,9.69295793089551,20.5318253934373
0.03,9.69722730902417,20.5290689371634
0.04,9.70096542330678,20.5264140849709
0.05,9.70416595252671,20.5239314393659
0.06,9.70682257546733,20.5216916028546
0.07,9.70892897091199,20.519765177943
0.08,9.71047881764406,20.5182227671372
0.09,9.7114657944469,20.5171349729433
0.1,9.71188358010387,20.5165723978675
0.11,9.71172585339835,20.5166056444158
0.12,9.71098629311368,20.5173053150944
0.13,9.70965857803324,20.5187420124093
0.14,9.70773638694038,20.5209863388666
0.15,9.7047946178156,20.5227756173123
0.16,9.70035632379096,20.5227364964442
0.17,9.69472358848643,20.5220136465695
0.18,9.68820719960173,20.5217796747201
0.19,9.68111794483653,20.5232071879277
0.2,9.67376661189051,20.5274687932243
0.21,9.66646398846338,20.5357370976418
0.22,9.65952086225482,20.5491847082121
0.23,9.65324802096452,20.5689842319671
0.24,9.64903824018318,20.596992123692
0.25,9.64804904696936,20.6332405709466
0.26,9.65183351410938,20.6747869629078
0.27,9.65803851194638,20.7264711171044
0.28,9.66358852974358,20.7940518620373
0.29,9.66832472684884,20.8730051306674
0.3,9.67266136724422,20.9664001289875
0.31,9.6782377603798,21.067213564342
0.32,9.67982985497892,21.1266155183729
0.33,9.67729702680877,21.1480932974288
0.34,9.67997383621748,21.2015598597218
0.35,9.67470211676682,21.2859015609048
0.36,9.64315333912941,21.4116542347366
0.37,9.59933621700313,21.4901984647226
0.38,9.57325821490996,21.5076788235147
0.39,9.56830431308764,21.5116349823106
0.4,9.5810685786496,21.5541606436926
0.41,9.59958770831748,21.6050269456761
0.42,9.60923495404769,21.6551343360036
0.43,9.61700918886387,21.7085693705786
0.44,9.62258565071661,21.7544811856965
0.45,9.62492112118878,21.7918853070985
0.46,9.62701090593893,21.820079992505
0.47,9.62799850267867,21.8410978714591
0.48,9.62850030130815,21.8541915705799
0.49,9.62680086652796,21.8587590183301
0.5,9.62217596715022,21.8621317569938
0.51,9.61628848550219,21.8671795466454
0.52,9.61228024428646,21.8739682873585
0.53,9.6111265234851,21.8826545535408
0.54,9.60300325803451,21.8962735563478
0.55,9.58676796952523,21.9132083650296
0.56,9.5619073971381,21.9296433320133
0.57,9.53375743124633,21.9430266440964
0.58,9.50308172198148,21.94836504531
0.59,9.46988723718786,21.9565044635578
0.6,9.43289845173449,21.966048078534
0.61,9.40648450620541,21.9719417437403
0.62,9.3882544632489,21.9746835547417
0.63,9.37100255074234,21.976507394676
0.64,9.35305295634795,21.9773185147129
0.65,9.32479392719613,21.9805751991193
0.66,9.26933249724116,21.9930388397486
0.67,9.20750659726901,22.0058958746668
0.68,9.15108420570829,22.0115563886999
0.69,9.10898626732532,22.0099282030472
0.7,9.07209490953391,22.0060028138824
0.71,9.0322059916452,22.0085489218936
0.72,8.98979979657087,22.0152935959162
0.73,8.93566927574498,22.0305188851578
0.74,8.88238712936585,22.0483243996836
0.75,8.83461734446136,22.06672329266
0.76,8.7986699317433,22.0825378637532
0.77,8.77442568999616,22.09309706078
0.78,8.75508307947355,22.100850275399
0.79,8.73438073621681,22.1056309898426
0.8,8.71647634052887,22.1077580725722
0.81,8.69861511445051,22.1079287781327
0.82,8.68446539235947,22.1065281446165
0.83,8.67480899718856,22.1030137121391
0.84,8.66743393235423,22.0989519870124
0.85,8.66527981526612,22.0938587762768
0.86,8.66163308834135,22.0897715019601
0.87,8.65795106554384,22.0860453203146
0.88,8.65323116714886,22.0830703332864
0.89,8.64609831396697,22.0817564549701
0.9,8.63887393908494,22.0807346936036
0.91,8.63257618792443,22.079304746015
0.92,8.62944850656919,22.0757605500557
0.93,8.62843742382845,22.0713777041555
0.94,8.630403546308,22.0656409927946
0.95,8.63224006296317,22.0614421339647
0.96,8.633558483132,22.0595574786568
0.97,8.63304937028769,22.0597602310079
0.98,8.63045111534188,22.0621329908456
0.99,8.62470513562125,22.0659788663034
1,8.61745928240278,22.0699925977924
1.01,8.61027312093388,22.0711815270505
1.02,8.60222523945792,22.0712076366865
1.03,8.59495245066199,22.0667609032701
1.04,8.58756921552075,22.0598307091454
1.05,8.58117033150253,22.051733001376
1.06,8.57660782573508,22.0406024159597
1.07,8.5728634696073,22.0278137048422
1.08,8.56848067366577,22.0180744864526
1.09,8.56399804280698,22.0097877006305
1.1,8.5594951697895,22.0029749868769
1.11,8.55490282686912,21.9991718947427
1.12,8.54953200678134,21.9964381530498
1.13,8.54388554386153,21.9946808270423
1.14,8.53986700492682,21.9910758963933
1.15,8.53664621011592,21.9869159012643
1.16,8.53160687384236,21.9843481098647
1.17,8.52417606131602,21.9840364530824
1.18,8.51519767650347,21.9856870283094
1.19,8.50357003059831,21.9906242989948
1.2,8.48933654581809,21.9989022689101
1.21,8.47174109757396,22.0085512281835
1.22,8.44864995265515,22.0223196934319
1.23,8.42466869465813,22.0354785676527
1.24,8.40344722997236,22.0432613214414
1.25,8.38165719695402,22.0494289473328
1.26,8.36824476617319,22.0457064267877
1.27,8.3583965170103,22.0366222934199
1.28,8.3479930940661,22.0278545887988
1.29,8.33365390744023,22.0224911206784
1.3,8.3172226438531,22.0175380275993
1.31,8.30277494032017,22.012947178219
1.32,8.29152984035071,22.0089706947446
1.33,8.28143388009653,22.0055211646258
1.34,8.27384881360041,22.0021058523716
1.35,8.26866398938517,21.9987381860011
1.36,8.26599228594452,21.9953326824592
1.37,8.26279602350737,21.9928893870505
1.38,8.25803600861124,21.9916991954184
1.39,8.25182399801998,21.9916823689251
1.4,8.24427174849745,21.9927591689331
1.41,8.2354910168075,21.9948498568045
1.42,8.22559355971397,21.9978746939019
1.43,8.21469113398073,22.0017539415875
1.44,8.20289549637162,22.0064078612236
1.45,8.1903184036505,22.0117567141726
1.46,8.17707161258121,22.0177207617968
1.47,8.16326687992761,22.0242202654585
1.48,8.14901596245356,22.0311754865202
1.49,8.13443061692289,22.038506686344
1.5,8.11962260009948,22.0461341262924
1.51,8.10470366874715,22.0539780677277
1.52,8.08978557962979,22.0619587720122
1.53,8.07498008951122,22.0699965005082
1.54,8.0603989551553,22.0780115145781
1.55,8.04615393332589,22.0859240755843
1.56,8.03235678078684,22.0936544448889
1.57,8.019119254302,22.1011228838545
1.58,8.00655311063522,22.1082496538433
1.59,7.99477010655036,22.1149550162177
1.6,7.98388199881126,22.1211592323399
1.61,7.97400054418178,22.1267825635723
1.62,7.96523749942577,22.1317452712773
1.63,7.95770462130708,22.1359676168172
1.64,7.95151366658957,22.1393698615543
1.65,7.94677639203708,22.141872266851
1.66,7.94359107515943,22.1434015884147
1.67,7.94100799866569,22.1444110101684
1.68,7.93823729992584,22.1453436056496
1.69,7.93506165229452,22.1463793942014
1.7,7.93071822912872,22.1474964339937
1.71,7.92636867533974,22.1487247310941
1.72,7.92270889400831,22.1495402038757
1.73,7.91750995457404,22.1523764728942
1.74,7.90909006420601,22.1583875771887
1.75,7.89909100788312,22.165847226928
1.76,7.88760363699715,22.1744468985472
1.77,7.87566881965572,22.1829963875163
1.78,7.86680589501807,22.189118560308
1.79,7.86296443799262,22.1913596529683
1.8,7.86147291562307,22.1918459073059
1.81,7.8604341856954,22.1921945490806
1.82,7.85967830778068,22.19258749977
1.83,7.8591381169725,22.1929612273555
1.84,7.85877589453966,22.1933232888978
1.85,7.85887429527171,22.1934781021791
1.86,7.85865214465828,22.1940575896382
1.87,7.85740906041281,22.1955600288128
1.88,7.85577864720424,22.1975739609231
1.89,7.85409854065565,22.2003580707556
1.9,7.85239662699301,22.2035416572361
1.91,7.85092795643347,22.2064350863821
1.92,7.84996997376095,22.2084545286416
1.93,7.84922940433342,22.2094413939656
1.94,7.84836509506313,22.2080832866474
1.95,7.84667451080079,22.2051486692647
1.96,7.84563792505189,22.2042305323363
1.97,7.84516743579689,22.2040541571669
1.98,7.84559186945975,22.2043848001339
1.99,7.84678060869071,22.205234614913
2,7.84835851397426,22.2060653074356
2.01,7.85052547280116,22.207271691324
2.02,7.8525948118195,22.2088454545294
2.03,7.85393251815881,22.210789516676
2.04,7.85513603532302,22.2132851667275
2.05,7.85570589047392,22.2159930823033
2.06,7.85547115650998,22.2194160074609
2.07,7.85483755058865,22.2230765322898
2.08,7.85418901050114,22.2262650491902
2.09,7.85330379899877,22.2291683620815
2.1,7.85235063113298,22.2317509097112
2.11,7.85171539574677,22.2335926763373
2.12,7.85134544552402,22.2347899241496
2.13,7.85148520127027,22.2351034353669
2.14,7.85199084632435,22.2349935991463
2.15,7.85246373528718,22.2351156940176
2.16,7.85296135589324,22.2354237712059
2.17,7.85346734727634,22.2358900462911
2.18,7.85390635052095,22.2368730274452
2.19,7.85416782276801,22.2381525710695
2.2,7.8542184015508,22.2399189171674
2.21,7.8543599214311,22.2411991382493
2.22,7.85459168050994,22.2421065353261
2.23,7.85492652762052,22.242414134389
2.24,7.85565389663078,22.241146556397
2.25,7.85643833157053,22.2393327160196
2.26,7.85720695448406,22.237111409382
2.27,7.85768324043434,22.2350588239208
2.28,7.85758141350119,22.2341431796836
2.29,7.85693641025937,22.2343936593771
2.3,7.85567731015039,22.236043431969
2.31,7.85419502052354,22.2378321354127
2.32,7.85250446200919,22.2400401393992
2.33,7.85058880848277,22.2419523711377
2.34,7.84839635327739,22.2433544538403
2.35,7.84600372875837,22.244617501201
2.36,7.84359401279892,22.245661620133
2.37,7.84094603111448,22.2464910073572
2.38,7.8381741593592,22.2472203993556
2.39,7.83554191408694,22.2480644681541
2.4,7.83246315387727,22.2502992920434
2.41,7.82980505027017,22.2516028327685
2.42,7.82841797746558,22.2499175582034
2.43,7.83041972828301,22.2426118034851
2.44,7.8341056714963,22.2324252140988
2.45,7.83670739609612,22.2242085514325
2.46,7.83703060144703,22.2196296576016
2.47,7.83354303683837,22.22114678382
2.48,7.82828316704626,22.2255006487243
2.49,7.82338191047139,22.2290247215483
2.5,7.8191778273696,22.2314131794647
2.51,7.81448354946868,22.2340891243382
2.52,7.80869590632187,22.2369153098267
2.53,7.80112450676585,22.2398585487812
2.54,7.78973822003501,22.2451582403064
2.55,7.77940222910311,22.2485407173711
2.56,7.76738265621475,22.2524292185582
2.57,7.75404712406257,22.256556556554
2.58,7.74233277355318,22.2582959407874
2.59,7.73553398107829,22.2547634151732
2.6,7.73859531511782,22.2422377774931
2.61,7.73948438024393,22.2294411032658
2.62,7.74145659575286,22.2128406878659
2.63,7.73726764644141,22.2005238889572
2.64,7.71965619214429,22.1982424590856
2.65,7.69915640113264,22.2030648291012
2.66,7.68738284085478,22.2076879411533
2.67,7.68291546947976,22.2104747846219
2.68,7.67778999621939,22.2147398604712
2.69,7.6650701148598,22.2221096711388
2.7,7.64984496206973,22.2305570015433
2.71,7.63689589844236,22.2367865373039
2.72,7.6289119148258,22.2388176733102
2.73,7.62322813276671,22.2383979631643
2.74,7.61758292117861,22.236344407725
2.75,7.60987277546488,22.2331989745563
2.76,7.60056134040272,22.2272008657265
2.77,7.5915888373791,22.2212997231968
2.78,7.5810070016711,22.2140478863535
2.79,7.5704816452473,22.2061431568349
2.8,7.5627511341902,22.1993125231754
2.81,7.55944314480838,22.1928111196913
2.82,7.55811119621722,22.1869892091949
2.83,7.55575183132463,22.1832300614131
2.84,7.55270937319551,22.1822706005787
2.85,7.54849088536876,22.1820655312311
2.86,7.54291003268186,22.1819924310011
2.87,7.53640129729359,22.1809129600185
2.88,7.52898388552636,22.1782115528394
2.89,7.52179346035023,22.174670021361
2.9,7.51609535234114,22.1707130111162
2.91,7.51319052045454,22.1673449751038
2.92,7.51115993058692,22.1643201986157
2.93,7.50885575953308,22.1621816324205
2.94,7.50715360368698,22.160758721668
2.95,7.50508167349761,22.1590924077798
2.96,7.5022887745231,22.1570334632711
2.97,7.49924377016472,22.1548961362681
2.98,7.4962366100733,22.1522119557231
2.99,7.49331027276455,22.1490870607119
3,7.49073539986961,22.1456276005256
3.01,7.48638989971413,22.1437339221859
3.02,7.48023688325973,22.1433991022962
3.03,7.47171997011959,22.1454015776449
3.04,7.46298156599709,22.1477000137283
3.05,7.45337411250132,22.150805858536
3.06,7.44639034747646,22.1519014837808
3.07,7.44019125874577,22.1523378245183
3.08,7.43492358987077,22.1512639275105
3.09,7.43204947944184,22.1477828536607
3.1,7.42815835053227,22.1446123294686
3.11,7.42129870497607,22.1428029386031
3.12,7.41297624144657,22.1415405332828
3.13,7.40415416170322,22.141262659069
3.14,7.39361683605468,22.1428343402104
3.15,7.38051387413104,22.1473555941819
3.16,7.35973072940897,22.1584525628045
3.17,7.32930562866716,22.177693652554
3.18,7.29504166161153,22.2004279467762
3.19,7.25870220417635,22.225633275337
3.2,7.23100573201279,22.2449296564942
3.21,7.21324416067136,22.2574553480673
3.22,7.20039751286983,22.2660718665621
3.23,7.19460645519678,22.2692480801307
3.24,7.19056494405848,22.2711651516064
3.25,7.18402630882959,22.274990533977
3.26,7.17731356422044,22.2789697859038
3.27,7.16823433652001,22.2847840467172
3.28,7.15874959826233,22.2909796161703
3.29,7.15002968634697,22.2966868833308
3.3,7.14118423716687,22.3022730444107
3.31,7.13329797566579,22.3074847526187
3.32,7.12742521301312,22.3116937067836
3.33,7.12253416852123,22.3157043732223
3.34,7.11809068058707,22.3202060374931
3.35,7.11467457422783,22.3240094934248
3.36,7.11216608288545,22.3272901375322
3.37,7.11072817710723,22.3295507248805
3.38,7.11047773664364,22.3303584018485
3.39,7.1111743448124,22.3301873358957
3.4,7.11243035386336,22.3299599869361
3.41,7.11385796913518,22.3305994233371
3.42,7.11529974259141,22.3328245458802
3.43,7.11717526834593,22.3362416290428
3.44,7.11942121847257,22.3402554985673
3.45,7.12193588433835,22.3442861351348
3.46,7.12460939909013,22.3477492966427
3.47,7.12707525671354,22.3501385928661
3.48,7.12942676831513,22.3517935001043
3.49,7.13200902665337,22.3532886334475
3.5,7.13533737105429,22.355029635784
3.51,7.13865833659644,22.3567613381357
3.52,7.14211546860449,22.3585842994662
3.53,7.14472864759185,22.3600463868531
3.54,7.14591825875232,22.3606430315917
3.55,7.14634974497605,22.3607926758538
3.56,7.14602583727086,22.3611540249555
3.57,7.14494776767927,22.3623857692376
3.58,7.14303864793306,22.365116179832
3.59,7.13987649605391,22.3693891750505
3.6,7.13565061392151,22.3747444007543
3.61,7.13066462565595,22.3807072341751
3.62,7.12522215537727,22.3868030525446
3.63,7.11960786918541,22.3925677920841
3.64,7.11369399483835,22.3979094484522
3.65,7.10766656635418,22.4029215246329
3.66,7.10191171730928,22.4076397666113
3.67,7.09681558128003,22.4120999203724
3.68,7.09266855523459,22.4164074251813
3.69,7.08915097931073,22.4208039876619
3.7,7.08634754677736,22.4248134029262
3.71,7.08439903902935,22.4284140458073
3.72,7.08288576133435,22.4313850812594
3.73,7.08147931520396,22.4333985772361
3.74,7.08034845575476,22.4346984170721
3.75,7.07947455557783,22.4360800793874
3.76,7.07882576518885,22.4383462621244
3.77,7.07849778104798,22.4416445297104
3.78,7.07849354723827,22.4455588413744
3.79,7.07871651890419,22.449810779963
3.8,7.0790701511902,22.4541219283224
3.81,7.07945789924074,22.4582138692992
3.82,7.07974001287559,22.4618970945956
3.83,7.07975889333197,22.4654275968741
3.84,7.07994616596056,22.4685105457398
3.85,7.08054081154406,22.4710691239235
3.86,7.08159139645888,22.4728925215023
3.87,7.08333307627875,22.4733162141915
3.88,7.08573728969335,22.4719879593564
3.89,7.08837190162884,22.4701598569751
3.9,7.09077242608268,22.4693339785137
3.91,7.09296208468019,22.4699981376518
3.92,7.09523079973842,22.4715714691505
3.93,7.09764854287253,22.4737194292425
3.94,7.1002852856977,22.4761074741608
3.95,7.10321099982908,22.4784010601382
3.96,7.10651969141473,22.4802585065713
3.97,7.11059084797466,22.4814130212491
3.98,7.11480524576941,22.4822984818219
3.99,7.11820043403696,22.4835109068843
4,7.12026069540667,22.4853950758683
4.01,7.1213822084425,22.4876510462508
4.02,7.12126177607827,22.4901059023045
4.03,7.11994964539998,22.4928689820699
4.04,7.11908290945589,22.4962399547807
4.05,7.11875188052644,22.5005364054742
4.06,7.11862213443965,22.505490539031
4.07,7.11865407194587,22.5106892116365
4.08,7.11880809379548,22.5157192794759
4.09,7.11897405152717,22.5203952183254
4.1,7.11880138287259,22.5255726758991
4.11,7.11878141680103,22.5298544467643
4.12,7.11955393346028,22.5313971516048
4.13,7.12144127749818,22.5290690891074
4.14,7.12450158368417,22.5238538553747
4.15,7.12848638828098,22.5158286551711
4.16,7.13412755286775,22.5065171766759
4.17,7.1434588052392,22.497709231079
4.18,7.15552177640581,22.4896129211346
4.19,7.16835902779049,22.4833573280176
4.2,7.18001312081616,22.4800715329028
4.21,7.18886455554326,22.4806843437356
4.22,7.19536335400045,22.4843889316952
4.23,7.19993792649848,22.4897246038183
4.24,7.20291652040369,22.4952559693841
4.25,7.20462738308241,22.4995476376718
4.26,7.20526356334599,22.5015627764739
4.27,7.20467621763291,22.5023280044059
4.28,7.20331723800653,22.5024540440783
4.29,7.20170416303662,22.502424468239
4.3,7.20035453129295,22.5027228496356
4.31,7.19984277311819,22.503369634073
4.32,7.20037676727544,22.5034378626771
4.33,7.20161504351759,22.5031732472979
4.34,7.20311137170113,22.5029018028825
4.35,7.20280340180869,22.5043677167591
4.36,7.20258079874099,22.5053797521504
4.37,7.20299724718272,22.5054113133686
4.38,7.20371485558528,22.5049572315012
4.39,7.20449772443166,22.5043410098097
4.4,7.20511145066414,22.5038781922794
4.41,7.20541115259201,22.5036231087137
4.42,7.2053761596561,22.5035034190726
4.43,7.20499311007533,22.5034856032749
4.44,7.20424864206862,22.5035361412391
4.45,7.2031247556347,22.5036208603933
4.46,7.2015354954781,22.5036978646618
4.47,7.19961586578766,22.5037611659561
4.48,7.19758329668817,22.5038171252599
4.49,7.19565521830438,22.5038721035564
4.5,7.19404906076108,22.5039324618292
4.51,7.19296394470743,22.5040082471136
4.52,7.19236080195022,22.5040840125026
4.53,7.19227366707799,22.5040349881927
4.54,7.19226457388724,22.5039714915152
4.55,7.19156699753859,22.5040650587341
4.56,7.19012581510371,22.5044590272565
4.57,7.18822895117484,22.5050123160444
4.58,7.18628481990166,22.5055420021878
4.59,7.18452423856102,22.5059783951064
4.6,7.18317802442981,22.5062518042203
4.61,7.18247260384876,22.5062920082771
4.62,7.18239564463502,22.5060784386317
4.63,7.18262977203077,22.5057487105769
4.64,7.18284481130405,22.5054672721967
4.65,7.18271124037081,22.5053973976145
4.66,7.18217875904761,22.5054070595514
4.67,7.18141038885958,22.5057173261504
4.68,7.18020423000375,22.5071201265745
4.69,7.17957627338956,22.5081323818801
4.7,7.17997662543148,22.507935145193
4.71,7.18093155008866,22.5070449587065
4.72,7.18160183725606,22.5063886175519
4.73,7.18162082856134,22.5063413277081
4.74,7.18136537702101,22.5064231955155
4.75,7.1809145905421,22.5063824242155
4.76,7.1802747133947,22.5061554272494
