"depth.grid","Temp.smt","Sal.smt"
0.13,14.5133906799625,1.00387234357376
0.14,14.5137158883958,1.00397926292785
0.15,14.5137599693432,1.0039179610223
0.16,14.5137100026108,1.00391048328839
0.17,14.5137421705934,1.00419871259149
0.18,14.5137759261859,1.0045820192731
0.19,14.5137767912006,1.00483589560892
0.2,14.5137396262591,1.00495151178207
0.21,14.5136798168315,1.004994809632
0.22,14.5136103892952,1.0049958216325
0.23,14.5135443700277,1.00498458025738
0.24,14.5134945090757,1.00499040780309
0.25,14.5134492750684,1.00498637319665
0.26,14.5133948629069,1.00495895813314
0.27,14.5133288335201,1.00492756342736
0.28,14.5132487478367,1.00491158989408
0.29,14.5131535620682,1.00492238906661
0.3,14.5130487373814,1.0049337193511
0.31,14.5129354923488,1.00494372141894
0.32,14.5128142486405,1.00495512779094
0.33,14.5126854279268,1.00497067098792
0.34,14.5125434391728,1.00499384045336
0.35,14.5123718904294,1.00502670622626
0.36,14.5121835277631,1.00506421994866
0.37,14.5119938068327,1.00510083507009
0.38,14.5118181832967,1.00513100504007
0.39,14.5116553177497,1.00515422630474
0.4,14.5114691419336,1.00518144248702
0.41,14.5112706926078,1.00521055031438
0.42,14.511074515762,1.00523842820725
0.43,14.5108951573857,1.00526195458611
0.44,14.5107471561591,1.0052780085715
0.45,14.5106140955834,1.00528707774299
0.46,14.5104778879626,1.00529230378293
0.47,14.5103478350772,1.00529480893161
0.48,14.5102332387081,1.00529571542934
0.49,14.5101427586978,1.00529585703423
0.5,14.510069535432,1.00529066724319
0.51,14.5100083951075,1.00528019875203
0.52,14.5099586757178,1.00526708453479
0.53,14.5099197152564,1.00525395756552
0.54,14.5098908517168,1.00524345081825
0.55,14.509878414756,1.00523523032183
0.56,14.5098938560533,1.00522415680593
0.57,14.5099282988569,1.00521127824001
0.58,14.5099720470328,1.00519793941075
0.59,14.510015404447,1.00518548510479
0.6,14.5100486749655,1.0051752601088
0.61,14.5100739825495,1.0051669610259
0.62,14.5101112067401,1.00515781597827
0.63,14.5101575016623,1.00514822840917
0.64,14.5102090841831,1.00513873256923
0.65,14.5102621711692,1.0051298627091
0.66,14.5103129794877,1.00512215307944
0.67,14.5103577260054,1.00511613793089
0.68,14.510393055368,1.00511155698601
0.69,14.5104203336551,1.00510644335207
0.7,14.5104438531163,1.00510131899374
0.71,14.5104679493516,1.00509690956213
0.72,14.510496957961,1.00509394070834
0.73,14.5105352145444,1.00509313808348
0.74,14.510584616884,1.00509540822809
0.75,14.5106200245254,1.00510301652768
0.76,14.5106417867226,1.00511496757096
0.77,14.5106602276166,1.00512936575228
0.78,14.5106856713484,1.00514431546599
0.79,14.510728442059,1.00515792110644
0.8,14.5107988638894,1.00516828706797
0.81,14.5109027049721,1.00517517035827
0.82,14.5110197721885,1.00518620714687
0.83,14.5111463718701,1.00520068298934
0.84,14.5112827483283,1.00521628939212
0.85,14.5114291458745,1.00523071786164
0.86,14.5115858088203,1.00524165990433
0.87,14.5117529814771,1.00524680702663
0.88,14.5119519987542,1.00524584964154
0.89,14.5122044713508,1.00524157745467
0.9,14.5124904745831,1.00523499713174
0.91,14.5127896068339,1.00522708360082
0.92,14.513081466486,1.00521881178998
0.93,14.5133456519225,1.00521115662728
0.94,14.5135661914126,1.00520460657571
0.95,14.5138216218239,1.0051898773389
0.96,14.514127837157,1.00516607736549
0.97,14.5144584756392,1.00513717732977
0.98,14.5147871754977,1.00510714790602
0.99,14.51508757496,1.00507995976853
1,14.5153333122532,1.00505958359159
1.01,14.5155002040847,1.00504984451747
1.02,14.5156185170349,1.00504974560967
1.03,14.5157076398167,1.00505605600931
1.04,14.5157691029449,1.00506630377273
1.05,14.5158044369341,1.00507801695628
1.06,14.5158151722992,1.00508872361631
1.07,14.5158028996697,1.00509595765016
1.08,14.5158507384439,1.00510619953192
1.09,14.515983226786,1.00512413238074
1.1,14.5161276896057,1.00514591803187
1.11,14.5162114518127,1.00516771832054
1.12,14.5161618383168,1.00518569508199
1.13,14.5159969583753,1.0051951817648
1.14,14.5160038899404,1.00519289307281
1.15,14.516078546532,1.00518416669838
1.16,14.5160692076755,1.00517503659536
1.17,14.5158241528964,1.00517153671761
1.18,14.515191005581,1.00517920226918
1.19,14.5140892387799,1.0051845538454
1.2,14.5127320403806,1.00518764629573
1.21,14.5113954378705,1.00520012727695
1.22,14.5101962872459,1.00521711715055
1.23,14.5088835454905,1.00523305801365
1.24,14.5073361412075,1.00527606281708
1.25,14.5055758646891,1.00532830902191
1.26,14.5038737713351,1.00538807970698
1.27,14.5025006442973,1.00545366317337
1.28,14.5012685267149,1.00553105527424
1.29,14.4999146335554,1.00562353814956
1.3,14.4985357160053,1.00572651269186
1.31,14.497228525251,1.00583537979369
1.32,14.496089812479,1.00594554034757
1.33,14.495216583709,1.00605238454079
1.34,14.4947488178907,1.00614976539837
1.35,14.4946401439607,1.00624032470491
1.36,14.4947336303898,1.00633156313591
1.37,14.4948723456488,1.00643098136688
1.38,14.4948993582084,1.00654608007334
1.39,14.4946577365393,1.00668435993079
1.4,14.4943402206082,1.00679036203412
1.41,14.4942131877919,1.00682338398774
1.42,14.4941569686235,1.00682770498856
1.43,14.4940514632497,1.00684769018806
1.44,14.4937765718172,1.00692770473772
1.45,14.4932121944729,1.00711211378901
1.46,14.492275608691,1.00742429728199
1.47,14.4913511379772,1.00764033260256
1.48,14.4904714207475,1.00776588973908
1.49,14.4895084894927,1.00790066646738
1.5,14.4883343767036,1.00814436056328
1.51,14.4868211148709,1.00859666980262
1.52,14.4848305061305,1.00934995481083
1.53,14.4821460861913,1.01033763905064
1.54,14.4789046873512,1.01150350867001
1.55,14.4753457689392,1.01283183251571
1.56,14.4717087902841,1.01430687943454
1.57,14.468233210715,1.01591291827331
1.58,14.4651015662174,1.0176410612227
1.59,14.461886137567,1.0195463542915
1.6,14.4585217924393,1.02162138393628
1.61,14.4551048557565,1.02383729297158
1.62,14.4517316524412,1.02616522421198
1.63,14.4484564796823,1.02858705328111
1.64,14.4450627669876,1.03115917078483
1.65,14.4417000627749,1.0338542083947
1.66,14.4385894360053,1.03662829934714
1.67,14.4359433401356,1.03942942870931
1.68,14.4336769287573,1.04173694851563
1.69,14.42273523415,1.04185771703809
1.7,14.4005887581855,1.04274817032816
1.71,14.3664960149598,1.04856928310957
1.72,14.3197155185689,1.06348203010607
1.73,14.2595057831089,1.09164738604137
1.74,14.1851253226756,1.13722632563922
1.75,14.0958326513651,1.20437982362333
1.76,13.9908862832734,1.29726885471744
1.77,13.8695447324965,1.42005439364528
1.78,13.7310665131302,1.57689741513059
1.79,13.5747101392707,1.77195889389708
1.8,13.399734125014,2.00939980466848
1.81,13.2053969844559,2.29338112216855
1.82,12.9909572316925,2.62806382112099
1.83,12.7556733808198,3.01760887624955
1.84,12.4988039459338,3.46617726227794
1.85,12.2196074411304,3.97792995392992
1.86,11.9173423805056,4.55702792592917
1.87,11.5912672781555,5.20763215299949
1.88,11.240640648176,5.93390360986454
1.89,10.864721004663,6.74000327124812
1.9,10.4627668617127,7.63009211187388
1.91,10.0397929574949,8.59871895309134
1.92,9.63501871688108,9.58188912564404
1.93,9.25593281223394,10.5664914922051
1.94,8.90284216606253,11.5536542479464
1.95,8.57513294949278,12.5443233003799
1.96,8.27644586812062,13.5418006647647
1.97,8.00780535569744,14.5357387195482
1.98,7.75819220189031,15.4318309822937
1.99,7.51769337113243,16.1318496112176
2,7.28280625289844,16.6356885316705
2.01,7.05636454330638,16.9895602313317
2.02,6.84144675408859,17.2355798320467
2.03,6.64113139697739,17.4158624556609
2.04,6.45849698370512,17.5725232240198
2.05,6.29393189166363,17.7350159540181
2.06,6.14257130024956,17.8702849381894
2.07,6.01678275605791,17.9746044468659
2.08,5.92807383133129,18.0492562455617
2.09,5.85387974621189,18.0840024829306
2.1,5.81261863954311,18.0932004864889
2.11,5.86662983316441,18.0384402916205
2.12,5.85772238108925,18.070158653164
2.13,5.88453342635408,18.0784212920892
2.14,5.86884667167822,18.1542329016048
2.15,5.82614728457829,18.2939958773938
2.16,5.76596748840931,18.4768458569127
2.17,5.69428066187714,18.6851285057263
2.18,5.61706018368764,18.9011894893994
2.19,5.5402794325467,19.1073744734968
2.2,5.46991178716016,19.2860291235832
2.21,5.4119306262339,19.4194991052233
2.22,5.36706062742854,19.5051399881562
2.23,5.32786916579503,19.5688475803811
2.24,5.2946744648651,19.6115420649229
2.25,5.26729067489957,19.6330856613222
2.26,5.24637582318174,19.6329205456062
