"depth.grid","Temp.smt","Sal.smt"
0.27,9.10868771478535,27.2492837826026
0.28,9.10304553188812,27.2516019077818
0.29,9.09770887082654,27.2538383953827
0.3,9.09260979534642,27.2560627761185
0.31,9.08768718807726,27.2583313294057
0.32,9.08302642808757,27.2605647733984
0.33,9.07871289444588,27.2626838262507
0.34,9.07483196622073,27.2646092061164
0.35,9.07146902248062,27.2662616311496
0.36,9.06867566776234,27.2675233941858
0.37,9.06644566255576,27.2684121089774
0.38,9.06478071404661,27.2690572546248
0.39,9.0639399558234,27.2693713564818
0.4,9.0638325441683,27.269358898214
0.41,9.06404454847935,27.2692123765057
0.42,9.06416785306894,27.2691304969495
0.43,9.06425627721921,27.269002831121
0.44,9.0645809302362,27.2687716911768
0.45,9.06548172771503,27.2683257154487
0.46,9.06733406729251,27.2674650431976
0.47,9.06933644339398,27.2667070207643
0.48,9.07110019785495,27.2666305301633
0.49,9.07220839286815,27.2667149067428
0.5,9.07287900112983,27.2670819539987
0.51,9.07329635821087,27.2673639329441
0.52,9.07357649509123,27.2673995640569
0.53,9.07375704411795,27.2673290263358
0.54,9.07410175369549,27.2670762877439
0.55,9.07442608031823,27.2665547972437
0.56,9.07486591360856,27.2662370379245
0.57,9.07552177894659,27.2660770215706
0.58,9.07627607218775,27.2659836882857
0.59,9.07697499863698,27.2659875180028
0.6,9.07746476359916,27.266118990655
0.61,9.07771640643761,27.2664161635165
0.62,9.07784895501256,27.2668256087198
0.63,9.07787364177815,27.2672156011606
0.64,9.07803137804313,27.2675652446124
0.65,9.07805374059701,27.267967250081
0.66,9.0775980649982,27.2685202116466
0.67,9.07754795322368,27.2689589108175
0.68,9.07754110120311,27.269389115911
0.69,9.07459241716847,27.2707324072769
0.7,9.07020176378704,27.2725717894336
0.71,9.06499202071562,27.2745833784514
0.72,9.05778402668179,27.2769055379782
0.73,9.04897475163849,27.2794957533512
0.74,9.04164904101865,27.2817918048982
0.75,9.03607372794043,27.2836611603415
0.76,9.03139577918798,27.2853663366445
0.77,9.02720154563717,27.2871571191399
0.78,9.02342435678381,27.2895966756646
0.79,9.01890038824261,27.2922809670494
0.8,9.01356966389062,27.2947024485529
0.81,9.00774280098083,27.2967532837282
0.82,9.00158160097611,27.2984768114125
0.83,8.99558162641331,27.2999483275321
0.84,8.9911460784938,27.3015023322525
0.85,8.98760909458668,27.3028443402874
0.86,8.98542678849248,27.3037350016102
0.87,8.9843616921384,27.3042851512825
0.88,8.98368525325703,27.3046449957447
0.89,8.98267312152598,27.3049604229289
0.9,8.98155842507523,27.3049788970896
0.91,8.98055533911767,27.3048637742837
0.92,8.97943370556635,27.3049242408695
0.93,8.97884079942426,27.3045132544627
0.94,8.97795193957357,27.3043626786417
0.95,8.97580560597329,27.3053373664375
0.96,8.97225424584704,27.3074469167124
0.97,8.96754953247732,27.3108022202881
0.98,8.96181279183722,27.3151558088546
0.99,8.95547427964367,27.3201915148391
1,8.94896425161362,27.325593170669
1.01,8.942712963464,27.3310446087716
1.02,8.93715067091177,27.3362296615744
1.03,8.93201659251012,27.341570332548
1.04,8.92601922362733,27.3483670397477
1.05,8.9203959348849,27.3549737574173
1.06,8.91645143827353,27.3597335965767
1.07,8.91380353426909,27.3634728975136
1.08,8.91177212360033,27.3667587898284
1.09,8.90988435899169,27.3697234613775
1.1,8.90864272067982,27.3710267605862
1.11,8.90755646435377,27.3724932657447
1.12,8.90719759366309,27.3726784332797
1.13,8.90725318032612,27.3723542072782
1.14,8.9074102960612,27.3722925318273
1.15,8.90735601258669,27.3732653510141
1.16,8.90677740162092,27.3760446089255
1.17,8.90564192004392,27.3813147392948
1.18,8.90442073897885,27.3870875832846
1.19,8.90305178884645,27.3923599895156
1.2,8.9014695840738,27.3981944759998
1.21,8.90007438952219,27.4044160762643
1.22,8.89925453241041,27.4108018900219
1.23,8.89862534918024,27.4176231550041
1.24,8.89752076109245,27.4253620165628
1.25,8.89602559505137,27.4342801417379
1.26,8.89457759189227,27.4439170020829
1.27,8.89273920714438,27.453697085778
1.28,8.89091928929815,27.4635167524445
1.29,8.88881944533536,27.4736392279262
1.3,8.88561722964561,27.4842823916725
1.31,8.88172273900482,27.4954043905229
1.32,8.87733272644281,27.506651276091
1.33,8.87264394498947,27.5176690999906
1.34,8.86785314767464,27.5281039138353
1.35,8.86315708752816,27.5376017692388
1.36,8.85875251757991,27.5458087178148
1.37,8.85472852013546,27.5524555121523
1.38,8.85077566459164,27.5579807733623
1.39,8.84698180410471,27.5630413986425
1.4,8.84353872685059,27.5684011506724
1.41,8.84044608766755,27.5735999686813
1.42,8.83785449482511,27.5783050430954
1.43,8.83556678866917,27.5826330097579
1.44,8.83335149370222,27.5866425315747
1.45,8.83097713442671,27.5903922714518
1.46,8.828194425173,27.5939918995415
1.47,8.82486834553324,27.5978574524838
1.48,8.82137613949904,27.6014612001606
1.49,8.81768117256166,27.6048564927556
1.5,8.81418995440068,27.607976000932
1.51,8.81086559948569,27.610886357712
1.52,8.80800797733094,27.6133045198648
1.53,8.8057028630906,27.6149717587679
1.54,8.80382255836386,27.6162221962749
1.55,8.80444505740451,27.6160211378766
1.56,8.80478390540332,27.6162268861372
1.57,8.79949061287648,27.6208521142517
1.58,8.7917913433483,27.6272200410226
1.59,8.78138641049537,27.6354162105229
1.6,8.76940581986213,27.6446532454774
1.61,8.75918791041907,27.6523303449928
1.62,8.75019287077208,27.6589759274877
1.63,8.74207526023851,27.6648388356169
1.64,8.73451925865685,27.670145399104
1.65,8.72720904586558,27.6751219476723
1.66,8.71982880170318,27.6799948110453
1.67,8.71206678719832,27.6849873541623
1.68,8.70406276638622,27.6899952262634
1.69,8.69586462675532,27.6949817294957
1.7,8.68723402496446,27.700118281704
1.71,8.6779326176725,27.7055763007334
1.72,8.6677220615383,27.711527204429
1.73,8.65636401322072,27.7181424106357
1.74,8.64534183163993,27.7243030790198
1.75,8.63674096457026,27.7284562540677
1.76,8.63025197105512,27.730854571175
1.77,8.62555044542394,27.7317619141076
1.78,8.62231198200617,27.7314421666314
1.79,8.62021217513123,27.7301592125122
1.8,8.61892661912855,27.728176935516
1.81,8.61813090832758,27.7257592194087
1.82,8.61750063705774,27.723169947956
1.83,8.61671139964847,27.720673004924
1.84,8.6154387904292,27.7185322740784
1.85,8.61335840372936,27.7170116391851
1.86,8.61014583387839,27.7163749840101
1.87,8.60547667520573,27.7168861923192
1.88,8.5990265220408,27.7188091478783
1.89,8.59047096871305,27.7224077344532
1.9,8.57948560955189,27.7279458358099
1.91,8.56728822200229,27.7343037708356
1.92,8.55539579205456,27.7401689553315
1.93,8.54388814917648,27.745556480283
1.94,8.53284508544794,27.7504814706939
1.95,8.52233973991363,27.7549567303982
1.96,8.51224780198418,27.7589393499054
1.97,8.50238766146897,27.7625110652417
1.98,8.49243069717493,27.7655220190874
1.99,8.48304414864303,27.7681034463299
2,8.47589591718475,27.7704901727227
2.01,8.47121754636104,27.7725722110333
2.02,8.46813556338016,27.7743194034406
2.03,8.46575509789763,27.7757391922739
2.04,8.46318127956895,27.7768390198622
2.05,8.45978919989522,27.7775393627116
2.06,8.45660275910718,27.777948602073
2.07,8.45350068551358,27.7781663171141
2.08,8.45118059088487,27.7780930069253
2.09,8.44978432402939,27.7772075427077
2.1,8.44889831351897,27.776038693204
2.11,8.44812071288714,27.7752395659379
2.12,8.44747915714767,27.7749963628092
2.13,8.44729369324249,27.7748727523542
2.14,8.44734438823605,27.7748211556478
2.15,8.44740684266178,27.774798091746
2.16,8.44725665705312,27.7747600797046
2.17,8.44672605176818,27.7746572411409
2.18,8.44615130550322,27.7744778323537
2.19,8.44480529764862,27.7745181664774
2.2,8.44295800380216,27.7746899532637
2.21,8.4404776741142,27.7751243078418
2.22,8.43775102521045,27.775600820983
2.23,8.435131441942,27.7758725038561
2.24,8.43240063328132,27.7759778478026
2.25,8.42993365091647,27.776038217586
2.26,8.42787433244713,27.7760835606147
2.27,8.42600292862727,27.7761489121028
2.28,8.42424435899825,27.7763110803686
2.29,8.42252354310142,27.7766468737303
2.3,8.42091147462389,27.7772679159574
2.31,8.41954510380109,27.7781213520025
2.32,8.41792202378863,27.7789516601714
2.33,8.41618963346572,27.779954410156
2.34,8.4145540411147,27.7808768863309
2.35,8.41306745042555,27.7815361848563
2.36,8.41176650791603,27.7820808587238
2.37,8.41385941621291,27.7819482177099
2.38,8.41786513550279,27.7815928268244
2.39,8.42005924865395,27.7820497184815
2.4,8.41671733853468,27.7843539250954
2.41,8.40275479695794,27.790218757325
2.42,8.37663646033103,27.7991205648219
2.43,8.34422268012502,27.8057925957404
2.44,8.31537440134642,27.8093913892973
2.45,8.30305897217443,27.8094460852694
2.46,8.30084680924263,27.8069475126702
2.47,8.30256844889716,27.8035247501214
2.48,8.30205687147933,27.8008064140922
2.49,8.29838509068546,27.7993055117319
2.5,8.29457629776981,27.7983133278669
2.51,8.29096408898029,27.7975168760982
2.52,8.28788206056485,27.7966031700272
2.53,8.28566380877142,27.7952592232551
2.54,8.28456562082786,27.7932538409136
2.55,8.28424843735032,27.7908557812971
2.56,8.28412033637934,27.7885189414412
2.57,8.28394718227033,27.7864575791326
2.58,8.28401767475512,27.7845058027627
2.59,8.28424769230858,27.7827256911971
2.6,8.28454590849007,27.7811839897326
2.61,8.28482099685893,27.7799474436662
2.62,8.28498163097455,27.7790827982948
2.63,8.28505952160352,27.7786441584673
2.64,8.28514046613089,27.7785494576933
2.65,8.28518933894191,27.7786567435122
2.66,8.28517086393665,27.7788240374648
2.67,8.28504976501518,27.7789093610915
2.68,8.28478681130901,27.7788851956471
2.69,8.28437426323594,27.7788937453578
2.7,8.2838383690191,27.7789301407703
2.71,8.28320581249788,27.7789856471466
2.72,8.28250327751164,27.7790515297487
2.73,8.28175744789977,27.7791190538384
2.74,8.28099500750166,27.7791794846778
2.75,8.28024264015666,27.7792240875286
2.76,8.27952702970418,27.7792441276528
2.77,8.27887248217795,27.7792325644328
2.78,8.27827754951135,27.7792025305342
2.79,8.27775253095586,27.7791623771411
2.8,8.27731365024844,27.7791166113223
2.81,8.27697617310831,27.77908144027
2.82,8.27671831984094,27.7790791846461
2.83,8.27648200815612,27.7790739239241
2.84,8.27620798713896,27.7790259409468
2.85,8.275819528999,27.7789051279002
2.86,8.27541208508793,27.7787186047189
2.87,8.27528441027316,27.7784670316133
2.88,8.2755025245486,27.7780991874851
2.89,8.27586935718182,27.7777489265028
2.9,8.2764103802574,27.7774563129966
2.91,8.27700600779337,27.7772058329262
2.92,8.27735529750617,27.7770448145855
2.93,8.27745506162499,27.7769961461729
2.94,8.27745035597513,27.7769999414542
2.95,8.27746194137876,27.7769874091574
2.96,8.27765700422265,27.776975697227
2.97,8.27790593839822,27.7769771187724
2.98,8.27800436333476,27.7769850676872
2.99,8.27774789846158,27.776992937865
3,8.27693137757632,27.7769941522391
3.01,8.27539867865022,27.7769869264787
3.02,8.27335998368662,27.7769766505044
3.03,8.27113024733799,27.7769688375802
3.04,8.2690244242568,27.77696900097
3.05,8.26731751050432,27.7769820300811
3.06,8.26582113226583,27.7770056410241
3.07,8.26448418331512,27.7770398131983
3.08,8.26334879953283,27.7770859943783
3.09,8.2624571167996,27.7771456323384
3.1,8.26185127099608,27.7772201748531
3.11,8.26157339800291,27.7773110696967
3.12,8.26166563370075,27.7774197646436
3.13,8.26211770524011,27.7775463772298
