"depth.grid","Temp.smt","Sal.smt"
0.16,12.7502095507913,0.13181212224045
0.17,12.7472724148144,0.131811918909941
0.18,12.7443643764193,0.131811740197212
0.19,12.7414853256882,0.131811587824361
0.2,12.738635152703,0.131811463513485
0.21,12.735813747546,0.131811368986681
0.22,12.733021000299,0.131811305966048
0.23,12.7302568010443,0.131811276173681
0.24,12.7275210398638,0.131811281331678
0.25,12.7248136068396,0.131811323162137
0.26,12.7221343920538,0.131811403387156
0.27,12.7194832855884,0.131811523728831
0.28,12.7168601775255,0.131811685909259
0.29,12.7142649579472,0.131811891650539
0.3,12.7116975169355,0.131812142674767
0.31,12.7091577445724,0.131812440704041
0.32,12.7066455309401,0.131812787460458
0.33,12.7041607661206,0.131813184666115
0.34,12.701703340196,0.131813634043111
0.35,12.6992731432483,0.131814137313541
0.36,12.6968699526179,0.131814699028919
0.37,12.6944937292712,0.131815320692862
0.38,12.6921447045152,0.131815997955593
0.39,12.6898231103723,0.131816726450986
0.4,12.6875291788648,0.131817501812917
0.41,12.6852631420151,0.131818319675259
0.42,12.6830252318457,0.131819175671887
0.43,12.6808156803789,0.131820065436675
0.44,12.6786347196371,0.131820984603497
0.45,12.6764825816427,0.131821928806228
0.46,12.6743594984181,0.131822893678742
0.47,12.6722657019858,0.131823874854913
0.48,12.6702014243681,0.131824867968615
0.49,12.6681668975873,0.131825868653723
0.5,12.666162353666,0.131826872544112
0.51,12.6641880246264,0.131827875273655
0.52,12.6622441424911,0.131828872476226
0.53,12.6603309392823,0.131829859785701
0.54,12.6584486470224,0.131830832835953
0.55,12.6565973011957,0.131831791139458
0.56,12.6547693540625,0.131832884295786
0.57,12.6529618027536,0.131834173448805
0.58,12.651175967421,0.131835634641481
0.59,12.6494131682171,0.131837243916782
0.6,12.6476747252938,0.131838977317675
0.61,12.6459619588035,0.131840810887128
0.62,12.6442761888983,0.131842720668109
0.63,12.6426187357303,0.131844682703585
0.64,12.6409909194518,0.131846673036523
0.65,12.6393940602149,0.131848667709892
0.66,12.6378294781718,0.131850642766657
0.67,12.6362984934747,0.131852574249788
0.68,12.6348024262758,0.131854438202251
0.69,12.6333425967272,0.131856210667014
0.7,12.6319203249811,0.131857867687045
0.71,12.6305369311896,0.131859385305311
0.72,12.6291937355051,0.131860739564779
0.73,12.6278935526036,0.131861952139665
0.74,12.6266436029231,0.131863228813848
0.75,12.6254424841135,0.131864582469978
0.76,12.6242876438044,0.131865995109867
0.77,12.6231765296255,0.131867448735329
0.78,12.6221065892063,0.131868925348179
0.79,12.6210752701764,0.13187040695023
0.8,12.6200800201656,0.131871875543297
0.81,12.6191182868033,0.131873313129193
0.82,12.6181875177192,0.131874701709732
0.83,12.6172851605429,0.131876023286728
0.84,12.616408662904,0.131877259861996
0.85,12.6155554724322,0.131878393437348
0.86,12.614723036757,0.131879406014599
0.87,12.613908803508,0.131880279595564
0.88,12.613110220315,0.131880996182055
0.89,12.6123247348074,0.131881537775887
0.9,12.6115497946149,0.131881886378874
0.91,12.6107877344082,0.131881987308528
0.92,12.610080793212,0.131881511422966
0.93,12.6094350790717,0.131880448075039
0.94,12.6088453413307,0.131878876535223
0.95,12.6083063293327,0.131876876073992
0.96,12.607812792421,0.13187452596182
0.97,12.6073594799392,0.131871905469184
0.98,12.6069411412307,0.131869093866556
0.99,12.6065525256391,0.131866170424413
1,12.6061883825079,0.131863214413228
1.01,12.6058434611805,0.131860305103477
1.02,12.6055125110005,0.131857521765634
1.03,12.6051902813114,0.131854943670174
1.04,12.6048715214566,0.131852650087572
1.05,12.6045509807797,0.131850720288302
1.06,12.6042234086242,0.13184923354284
1.07,12.6038835543335,0.13184826912166
1.08,12.6035261672512,0.131847906295237
1.09,12.6031461794476,0.131848223548823
1.1,12.6027831980168,0.131849085088278
1.11,12.6024670731702,0.131850319001533
1.12,12.6021932589954,0.131851884192119
1.13,12.6019572095801,0.131853739563568
1.14,12.6017543790121,0.131855844019412
1.15,12.6015802213789,0.131858156463183
1.16,12.6014301907683,0.131860635798412
1.17,12.601299741268,0.13186324092863
1.18,12.6011843269656,0.13186593075737
1.19,12.6010794019488,0.131868664188163
1.2,12.6009804203054,0.131871400124541
1.21,12.6008828361229,0.131874097470035
1.22,12.6007821034891,0.131876715128178
1.23,12.6006736764917,0.1318792120025
1.24,12.6005530092183,0.131881546996535
1.25,12.6004155557567,0.131883679013812
1.26,12.6002567701944,0.131885566957864
1.27,12.6000721066193,0.131887169732223
1.28,12.5998570191189,0.131888446240421
1.29,12.5996238075445,0.131889617028518
1.3,12.5994066512292,0.131891214057836
1.31,12.5992047507524,0.131893200935413
1.32,12.5990159522133,0.13189551978736
1.33,12.5988381017109,0.131898112739787
1.34,12.5986690453441,0.131900921918804
1.35,12.5985066292122,0.131903889450522
1.36,12.5983486994139,0.13190695746105
1.37,12.5981931020485,0.131910068076499
1.38,12.598037683215,0.13191316342298
1.39,12.5978802890122,0.131916185626601
1.4,12.5977187655394,0.131919076813474
1.41,12.5975509588955,0.131921779109708
1.42,12.5973747151796,0.131924234641414
1.43,12.5971878804906,0.131926385534703
1.44,12.5969883009277,0.131928173915683
1.45,12.5967738225898,0.131929541910466
1.46,12.596542291576,0.131930431645161
1.47,12.5962915539853,0.131930785245879
1.48,12.5960204887812,0.131930544630654
1.49,12.5957536698655,0.131929677673973
1.5,12.5955001983305,0.131928235826173
1.51,12.5952572452474,0.131926285253512
1.52,12.5950219816869,0.13192389212225
1.53,12.59479157872,0.131921122598645
1.54,12.5945632074177,0.131918042848957
1.55,12.5943340388509,0.131914719039446
1.56,12.5941012440905,0.131911217336371
1.57,12.5938619942075,0.13190760390599
1.58,12.5936134602728,0.131903944914563
1.59,12.5933528133573,0.13190030652835
1.6,12.593077224532,0.131896754913609
1.61,12.5927838648678,0.131893356236601
1.62,12.5924699054357,0.131890176663583
1.63,12.5921325173065,0.131887282360816
1.64,12.5917688715512,0.131884739494558
1.65,12.5913761521391,0.131882612211586
1.66,12.5909566451427,0.131880299618463
1.67,12.5905147791417,0.131877342823642
1.68,12.5900522264273,0.131873820619018
1.69,12.5895706592907,0.131869811796485
1.7,12.5890717500231,0.131865395147936
1.71,12.5885571709158,0.131860649465268
1.72,12.5880285942598,0.131855653540374
1.73,12.5874876923465,0.131850486165149
1.74,12.586936137467,0.131845226131488
1.75,12.5863756019125,0.131839952231285
1.76,12.5858077579743,0.131834743256434
1.77,12.5852342779434,0.13182967799883
1.78,12.5846568341112,0.131824835250368
1.79,12.5840770987689,0.131820293802942
1.8,12.5834967442076,0.131816132448446
1.81,12.5829174427185,0.131812429978776
1.82,12.5823408665929,0.131809265185825
1.83,12.5817686881219,0.131806716861489
1.84,12.5812022777923,0.131804863139774
1.85,12.580607064855,0.131803675417949
1.86,12.5799627179856,0.131803062361822
1.87,12.5792751391482,0.131802970650054
1.88,12.5785502303069,0.131803346961305
1.89,12.5777938934257,0.131804137974234
1.9,12.5770120304687,0.1318052903675
1.91,12.5762105434,0.131806750819764
1.92,12.5753953341838,0.131808466009686
1.93,12.574572304784,0.131810382615924
1.94,12.5737473571647,0.131812447317139
1.95,12.5729263932902,0.13181460679199
1.96,12.5721153151243,0.131816807719137
1.97,12.5713200246313,0.13181899677724
1.98,12.5705464237751,0.131821120644959
1.99,12.5698004145199,0.131823126000953
2,12.5690878988298,0.131824959523881
2.01,12.5684147786689,0.131826567892404
2.02,12.5677869560011,0.131827897785181
2.03,12.5672103327907,0.131828895880872
2.04,12.5666902443982,0.131829513027979
2.05,12.5662023210787,0.13182992201483
2.06,12.5657304824201,0.131830244434807
2.07,12.5652739931806,0.131830490711761
2.08,12.5648321181184,0.131830671269543
2.09,12.5644041219916,0.131830796532001
2.1,12.5639892695585,0.131830876922986
2.11,12.563586825577,0.131830922866347
2.12,12.5631960548055,0.131830944785935
2.13,12.562816222002,0.1318309531056
2.14,12.5624465919247,0.131830958249192
2.15,12.5620864293318,0.131830970640561
2.16,12.5617349989815,0.131831000703555
2.17,12.5613915656318,0.131831058862027
2.18,12.561055394041,0.131831155539825
2.19,12.5607257489671,0.131831301160799
2.2,12.5604018951685,0.1318315061488
2.21,12.5600830974031,0.131831780927678
2.22,12.5597686204292,0.131832135921281
2.23,12.559457729005,0.131832581553461
2.24,12.5591525980738,0.131833079088236
2.25,12.5588666980042,0.131833401441276
2.26,12.5586005632384,0.13183354353398
2.27,12.5583527206661,0.131833534409744
2.28,12.5581216971769,0.131833403111962
2.29,12.5579060196603,0.131833178684026
2.3,12.557704215006,0.131832890169332
2.31,12.5575148101034,0.131832566611273
2.32,12.5573363318423,0.131832237053244
2.33,12.5571673071122,0.131831930538639
2.34,12.5570062628027,0.131831676110852
2.35,12.5568517258034,0.131831502813276
2.36,12.5567022230039,0.131831439689307
2.37,12.5565562812937,0.131831515782337
2.38,12.5564124275625,0.131831760135762
2.39,12.5562691886999,0.131832201792975
2.4,12.5561250915954,0.13183286979737
2.41,12.5559786631386,0.131833793192342
2.42,12.5558284302192,0.131835001021285
2.43,12.5556794692127,0.131836511596385
2.44,12.5555418457441,0.13183830304168
2.45,12.555415077266,0.131840347314964
2.46,12.5552985041079,0.131842616476803
2.47,12.5551914665995,0.131845082587762
2.48,12.5550933050703,0.131847717708407
2.49,12.5550033598498,0.131850493899305
2.5,12.5549209712676,0.131853383221021
2.51,12.5548454796532,0.131856357734121
2.52,12.5547762253362,0.131859389499171
2.53,12.5547125486462,0.131862450576737
2.54,12.5546537899126,0.131865513027385
2.55,12.554599289465,0.13186854891168
2.56,12.5545483876331,0.131871530290189
2.57,12.5545004247463,0.131874429223477
2.58,12.5544547411342,0.131877217772111
2.59,12.5544106771263,0.131879867996656
2.6,12.5543675730523,0.131882351957678
2.61,12.5543261306499,0.131884672859647
2.62,12.5542993080372,0.131887125983985
2.63,12.554288949056,0.131889775245504
2.64,12.554293124397,0.131892600628454
2.65,12.5543099047507,0.131895582117087
2.66,12.5543373608078,0.131898699695653
2.67,12.5543735632587,0.1319019333484
2.68,12.5544165827943,0.131905263059581
2.69,12.554464490105,0.131908668813445
2.7,12.5545153558814,0.131912130594242
2.71,12.5545672508141,0.131915628386223
2.72,12.5546182455938,0.131919142173638
2.73,12.554666410911,0.131922651940737
2.74,12.5547098174563,0.13192613767177
2.75,12.5547465359204,0.131929579350988
2.76,12.5547746369938,0.131932956962641
2.77,12.5547921913671,0.13193625049098
2.78,12.5547972697309,0.131939439920254
2.79,12.5547879427759,0.131942505234713
2.8,12.5547622811925,0.131945426418609
2.81,12.5547194371919,0.131948199019587
2.82,12.5546877663806,0.131951231390667
2.83,12.5546782937485,0.131954662902582
2.84,12.5546879894333,0.131958427603697
2.85,12.5547138235724,0.131962459542375
2.86,12.5547527663034,0.13196669276698
2.87,12.5548017877638,0.131971061325876
2.88,12.5548578580912,0.131975499267428
2.89,12.5549179474229,0.131979940639998
2.9,12.5549790258966,0.131984319491951
2.91,12.5550380636497,0.131988569871652
2.92,12.5550920308198,0.131992625827463
2.93,12.5551378975444,0.131996421407748
2.94,12.555172633961,0.131999890660873
2.95,12.5551932102071,0.132002967635199
2.96,12.5551965964202,0.132005586379093
2.97,12.555179762738,0.132007680940917
2.98,12.5551396792977,0.132009185369035
2.99,12.5550733162371,0.132010033711811
3,12.554977634696,0.132010159691094
3.01,12.554846576031,0.132009374539846
3.02,12.5546793938643,0.132007635318149
3.03,12.5544799466756,0.132005055539735
3.04,12.5542520929442,0.132001748718337
3.05,12.5539996911499,0.131997828367687
3.06,12.5537265997721,0.131993408001518
3.07,12.5534366772904,0.131988601133562
3.08,12.5531337821844,0.131983521277551
3.09,12.5528217729336,0.131978281947219
3.1,12.5525045080176,0.131972996656298
3.11,12.5521858459159,0.13196777891852
3.12,12.5518696451081,0.131962742247617
3.13,12.5515597640737,0.131958000157322
3.14,12.5512600612924,0.131953666161368
3.15,12.5509743952435,0.131949853773488
3.16,12.5507066244068,0.131946676507412
3.17,12.5504606072618,0.131944247876875
3.18,12.550240202288,0.131942681395608
3.19,12.5500364776464,0.131941712307439
3.2,12.5498216414436,0.131940515928919
3.21,12.549595927074,0.131939094435309
3.22,12.54936085099,0.131937487907195
3.23,12.5491179296438,0.131935736425163
3.24,12.5488686794879,0.131933880069799
3.25,12.5486146169746,0.131931958921689
3.26,12.5483572585562,0.131930013061418
3.27,12.5480981206852,0.131928082569572
3.28,12.5478387198139,0.131926207526737
3.29,12.5475805723947,0.131924428013498
3.3,12.5473251948799,0.131922784110442
3.31,12.5470741037219,0.131921315898154
3.32,12.546828815373,0.13192006345722
3.33,12.5465908462856,0.131919066868226
3.34,12.5463617129122,0.131918366211757
3.35,12.5461429317049,0.1319180015684
3.36,12.5459360191162,0.13191801301874
3.37,12.5457424915985,0.131918440643362
3.38,12.5455638656042,0.131919324522853
3.39,12.5454016575854,0.131920704737799
3.4,12.5452545247155,0.131922640247855
3.41,12.5451187278494,0.13192513692024
3.42,12.544993363514,0.131928139654944
3.43,12.544877543443,0.131931593155
3.44,12.5447703793703,0.131935442123442
3.45,12.5446709830294,0.131939631263304
3.46,12.5445784661543,0.131944105277617
3.47,12.5444919404785,0.131948808869418
3.48,12.544410517736,0.131953686741737
3.49,12.5443333096604,0.13195868359761
3.5,12.5442594279855,0.131963744140069
3.51,12.544187984445,0.131968813072149
3.52,12.5441180907727,0.131973835096882
3.53,12.5440488587023,0.131978754917302
3.54,12.5439793999676,0.131983517236442
3.55,12.5439088263023,0.131988066757337
3.56,12.5438362494402,0.131992348183019
3.57,12.543760781115,0.131996306216522
3.58,12.5436815330605,0.131999885560879
3.59,12.5435981909374,0.132003312853128
3.6,12.5435124164932,0.132007431426911
3.61,12.5434249292727,0.132012226215456
3.62,12.5433363343082,0.132017611857403
3.63,12.5432472366318,0.132023502991391
3.64,12.5431582412759,0.132029814256059
3.65,12.5430699532726,0.132036460290048
3.66,12.5429829776542,0.132043355731997
3.67,12.5428979194529,0.132050415220546
3.68,12.5428153837009,0.132057553394334
3.69,12.5427359754304,0.132064684892002
3.7,12.5426602996738,0.132071724352188
3.71,12.5425889614631,0.132078586413532
3.72,12.5425225658307,0.132085185714675
3.73,12.5424617178088,0.132091436894256
3.74,12.5424070224295,0.132097254590914
3.75,12.5423590847252,0.13210255344329
3.76,12.542318509728,0.132107248090022
3.77,12.5422859024701,0.132111253169751
3.78,12.5422618679839,0.132114483321116
3.79,12.5422469575584,0.132116853928114
3.8,12.5422402947341,0.132118339614215
3.81,12.5422410111305,0.132119013090686
3.82,12.5422486314951,0.132118955945601
3.83,12.5422626805754,0.132118249767034
3.84,12.5422826831188,0.132116976143058
3.85,12.5423081638727,0.132115216661746
3.86,12.5423386475845,0.132113052911173
3.87,12.5423736590018,0.132110566479411
3.88,12.5424127228719,0.132107838954534
3.89,12.5424553639423,0.132104951924616
3.9,12.5425011069604,0.13210198697773
3.91,12.5425494766736,0.132099025701948
3.92,12.5425999978294,0.132096149685346
3.93,12.5426521951753,0.132093440515997
3.94,12.5427055934586,0.132090979781973
3.95,12.5427597174267,0.132088849071348
3.96,12.5428140918272,0.132087129972196
3.97,12.5428682414075,0.13208590407259
3.98,12.5429216909149,0.132085252960605
3.99,12.5429739748712,0.132085258018551
4,12.5430375667571,0.132085702496981
4.01,12.5431222645305,0.132086328520169
4.02,12.5432256413355,0.132087112528724
4.03,12.5433452703164,0.132088030963253
4.04,12.5434787246172,0.132089060264365
4.05,12.5436235773821,0.132090176872667
4.06,12.5437774017553,0.132091357228768
4.07,12.543937770881,0.132092577773275
4.08,12.5441022579033,0.132093814946797
4.09,12.5442684359663,0.132095045189942
4.1,12.5444338782143,0.132096244943317
4.11,12.5445961577913,0.132097390647531
4.12,12.5447528478416,0.132098458743192
4.13,12.5449015215093,0.132099425670908
4.14,12.5450397519385,0.132100267871286
4.15,12.5451651122734,0.132100961784936
4.16,12.5452751756582,0.132101483852464
4.17,12.545367515237,0.132101810514479
4.18,12.5454397041541,0.13210191821159
4.19,12.5454930194295,0.132101795402977
4.2,12.5455449329828,0.13210149782273
4.21,12.5455975372484,0.13210105260322
4.22,12.5456502556948,0.132100479546246
4.23,12.5457025117905,0.132099798453607
4.24,12.5457537290042,0.1320990291271
4.25,12.5458033308043,0.132098191368524
4.26,12.5458507406594,0.132097304979678
4.27,12.5458953820381,0.132096389762359
4.28,12.5459366784089,0.132095465518367
4.29,12.5459740532405,0.132094552049499
4.3,12.5460069300014,0.132093669157554
4.31,12.54603473216,0.132092836644331
4.32,12.5460568831851,0.132092074311628
4.33,12.5460728065451,0.132091401961243
4.34,12.5460819257087,0.132090839394975
4.35,12.5460836641443,0.132090406414621
4.36,12.5460774453205,0.132090122821982
4.37,12.546062692706,0.132090008418854
4.38,12.5460381480779,0.13209005942074
4.39,12.5459953495853,0.13208999806797
4.4,12.5459334618791,0.132089758357111
4.41,12.5458544543653,0.132089365269695
4.42,12.5457602964495,0.132088843787258
4.43,12.5456529575375,0.132088218891333
4.44,12.545534407035,0.132087515563453
4.45,12.5454066143477,0.132086758785152
4.46,12.5452715488813,0.132085973537966
4.47,12.5451311800417,0.132085184803426
4.48,12.5449874772345,0.132084417563068
4.49,12.5448424098654,0.132083696798424
4.5,12.5446979473402,0.13208304749103
4.51,12.5445560590647,0.132082494622418
4.52,12.5444187144445,0.132082063174123
4.53,12.5442878828854,0.132081778127679
4.54,12.5441655337931,0.132081664464619
4.55,12.5440536365733,0.132081747166477
4.56,12.5439541606319,0.132082051214788
4.57,12.5438690753744,0.132082601591084
4.58,12.5438003107865,0.132083423470845
4.59,12.5437365295733,0.132084593735699
4.6,12.5436681466912,0.132086132229442
4.61,12.5435958460052,0.13208799751128
4.62,12.5435203113803,0.132090148140419
4.63,12.5434422266817,0.132092542676067
4.64,12.5433622757745,0.132095139677429
4.65,12.5432811425237,0.132097897703713
4.66,12.5431995107944,0.132100775314126
4.67,12.5431180644517,0.132103731067873
4.68,12.5430374873607,0.132106723524162
4.69,12.5429584633865,0.132109711242199
4.7,12.5428816763941,0.132112652781191
4.71,12.5428078102486,0.132115506700344
4.72,12.5427375488152,0.132118231558865
4.73,12.5426715759589,0.132120785915962
4.74,12.5426105755448,0.132123128330839
4.75,12.5425552314379,0.132125217362705
4.76,12.5425062275034,0.132127011570766
4.77,12.5424642476063,0.132128469514228
4.78,12.5424308517969,0.132129637322521
4.79,12.5424099755003,0.132130889363241
4.8,12.5424009195193,0.132132260773725
4.81,12.5424024164271,0.132133736800796
4.82,12.5424131987968,0.132135302691278
4.83,12.5424319992015,0.132136943691994
4.84,12.5424575502144,0.13213864504977
4.85,12.5424885844088,0.132140392011427
4.86,12.5425238343577,0.132142169823791
4.87,12.5425620326344,0.132143963733684
4.88,12.5426019118119,0.132145758987931
4.89,12.5426422044636,0.132147540833354
4.9,12.5426816431625,0.132149294516779
4.91,12.5427189604818,0.132151005285028
4.92,12.5427528889947,0.132152658384925
4.93,12.5427821612743,0.132154239063293
4.94,12.5428055098938,0.132155732566958
4.95,12.5428216674265,0.132157124142742
4.96,12.5428293664454,0.132158399037468
4.97,12.5428273395237,0.132159542497962
4.98,12.5428143192346,0.132160539771046
4.99,12.5427900655331,0.132161353048623
5,12.5427632881823,0.132161771109766
5.01,12.5427361586178,0.132161781155939
5.02,12.5427085644667,0.132161426727553
5.03,12.5426803933563,0.13216075136502
5.04,12.5426515329137,0.132159798608752
5.05,12.5426218707662,0.132158611999161
5.06,12.5425912945409,0.132157235076659
5.07,12.5425596918649,0.132155711381657
5.08,12.5425269503656,0.132154084454568
5.09,12.54249295767,0.132152397835803
5.1,12.5424576014054,0.132150695065774
5.11,12.542420769199,0.132149019684893
5.12,12.5423823486779,0.132147415233573
5.13,12.5423422274694,0.132145925252224
5.14,12.5423002932005,0.13214459328126
5.15,12.5422564334986,0.132143462861091
5.16,12.5422105359907,0.132142577532129
5.17,12.5421624883042,0.132141980834787
5.18,12.5421121780661,0.132141716309477
