"depth.grid","Temp.smt","Sal.smt"
0.12,14.3881145520792,1.21622491071357
0.13,14.4047789661312,1.35112597460747
0.14,14.4180774764201,1.47633238474476
0.15,14.4281728775,1.59121608278106
0.16,14.4351698675325,1.69639615987566
0.17,14.4392871873454,1.79244566347795
0.18,14.4398323001903,1.88916338986554
0.19,14.4376317703267,1.97227570904725
0.2,14.4331998149769,2.02629755121619
0.21,14.4252436712117,2.05666656375076
0.22,14.4155996546608,2.07658556862309
0.23,14.40653759399,2.09878528732532
0.24,14.4001758336891,2.13527225811445
0.25,14.394797223437,2.17866769779027
0.26,14.3893179751236,2.22199791395033
0.27,14.3838780581724,2.26375494023968
0.28,14.3786174420067,2.30243081030334
0.29,14.3738431599181,2.33721422733533
0.3,14.3705772160459,2.37208372252675
0.31,14.3678972383129,2.40614500394572
0.32,14.3644977124685,2.43719928206604
0.33,14.3590731242626,2.46304776736149
0.34,14.3515740519405,2.48227081526412
0.35,14.3432129853944,2.49634532109796
0.36,14.3342975416427,2.50738752241064
0.37,14.3251331796571,2.51751339598875
0.38,14.3160253399769,2.52883254465607
0.39,14.3071504389059,2.53814384098827
0.4,14.2982633032614,2.54289975897981
0.41,14.2890335962444,2.54515809083372
0.42,14.2791309810558,2.54697662875302
0.43,14.2682251208969,2.55041316494072
0.44,14.255778042908,2.55675464107607
0.45,14.2406692509589,2.5625474630057
0.46,14.2237102262926,2.56739099084862
0.47,14.2060083560076,2.57167443996634
0.48,14.1886710272021,2.5757870257204
0.49,14.1728056269743,2.58011796347231
0.5,14.1594277530798,2.58503175501291
0.51,14.1461197152541,2.5899304824324
0.52,14.131988371419,2.59452038111676
0.53,14.1178727666481,2.59895613599043
0.54,14.1046119460152,2.60339243197786
0.55,14.0930449545938,2.60798395400347
0.56,14.0838975494347,2.6127824747837
0.57,14.0757469103878,2.61623262033119
0.58,14.0680523062816,2.61839502393746
0.59,14.0609964842537,2.62009857063718
0.6,14.0547621914415,2.62217214546504
0.61,14.0495321749825,2.6254446334557
0.62,14.0454866506668,2.63068265775381
0.63,14.0425667552761,2.63415107427379
0.64,14.0406406773544,2.63463695437395
0.65,14.0396706883551,2.63407267091416
0.66,14.0396190597317,2.63439059675432
0.67,14.0404480629379,2.6375231047543
0.68,14.0421199694273,2.64540256777399
0.69,14.0448675556854,2.65832325982191
0.7,14.0496139349406,2.67083689941878
0.71,14.055970311908,2.68338154016667
0.72,14.0633983815043,2.69719407750094
0.73,14.0713598386462,2.71351140685696
0.74,14.0793163782505,2.73357042367009
0.75,14.0867788475671,2.7585473639076
0.76,14.095685201226,2.78634485739598
0.77,14.1066217131573,2.81571055951171
0.78,14.1186894747865,2.84707656598491
0.79,14.1309895775391,2.8808749725457
0.8,14.1426231128405,2.91753787492418
0.81,14.1526911721163,2.95749736885049
0.82,14.1623289059172,2.99768780314814
0.83,14.1743513937194,3.03363146414975
0.84,14.1877237730886,3.06863863206664
0.85,14.2013195617044,3.10619057267409
0.86,14.2140122772466,3.14976855174738
0.87,14.224675437395,3.20285383506179
0.88,14.2325742869037,3.26648572756112
0.89,14.240191786532,3.32404096768885
0.9,14.2478617715055,3.37666149717664
0.91,14.2551864600077,3.43045793964896
0.92,14.2617680702221,3.49154091873028
0.93,14.2672088203323,3.5660210580451
0.94,14.2711109285217,3.66000898121786
0.95,14.2728972465103,3.76777387057061
0.96,14.2722735696793,3.86668197343176
0.97,14.2699283001368,3.96452104995716
0.98,14.2665860106887,4.07064270140417
0.99,14.2629712741405,4.19439852903013
1,14.259808663298,4.34514013409238
1.01,14.2574245122008,4.52497528015719
1.02,14.2548411852253,4.71582235167499
1.03,14.2519048557936,4.91862627800309
1.04,14.248555886146,5.1361977302377
1.05,14.2447346385226,5.371347379475
1.06,14.2403814751637,5.62688589681121
1.07,14.2358512710533,5.91237704161058
1.08,14.2325496434761,6.25107924031229
1.09,14.229714904895,6.62634153859719
1.1,14.2263318003591,7.01713390683147
1.11,14.2213850749176,7.40242631538133
1.12,14.2138815823045,7.76136450869028
1.13,14.2099638294095,8.13458621503719
1.14,14.2118143293206,8.54829938026383
1.15,14.2147484348735,8.97792152598353
1.16,14.2140814989039,9.39887017380963
1.17,14.2051288742473,9.78656284535547
1.18,14.1888976402276,10.1244191890603
1.19,14.1957786559535,10.4520413624997
1.2,14.2133038535591,10.7739254069535
1.21,14.2200686734589,11.0840810518257
1.22,14.1946685560677,11.3765180265205
1.23,14.1367676307815,11.641466186818
1.24,14.0926885650419,11.8710220913118
1.25,14.0443313731641,12.0803259109906
1.26,13.9682513582083,12.2858886578029
1.27,13.8414822269887,12.5032348826145
1.28,13.674613880281,12.6930077221609
1.29,13.4844423285676,12.846189545131
1.3,13.274650427255,12.988754424115
1.31,13.0489210317496,13.1466764317029
1.32,12.7996200653887,13.3381062223636
1.33,12.484061193087,13.5384591997586
1.34,12.1234241180012,13.7409421107231
1.35,11.7476253208892,13.943204261467
1.36,11.3865812825088,14.1428949582006
1.37,11.0693280500241,14.3378268410978
1.38,10.7338939734124,14.5412762718268
1.39,10.3541215108651,14.7552580312487
1.4,9.96774023831499,14.9690066975522
1.41,9.61247973169465,15.1717568489261
1.42,9.32583491462165,15.3528012814045
1.43,9.09096760557437,15.5154884568187
1.44,8.87498719133567,15.6691326124853
1.45,8.67391500469715,15.8162995162208
1.46,8.4837723784504,15.9595549358417
1.47,8.300580645387,16.1014646391646
1.48,8.12861261666643,16.2424002138766
1.49,7.98889225799135,16.3768265286982
1.5,7.87361700028165,16.505210647925
1.51,7.77258913717656,16.6285937909954
1.52,7.67561096231535,16.7480171773479
1.53,7.57248476933726,16.864522026421
1.54,7.45346578012942,16.9791047359071
1.55,7.33369222364406,17.0902703156582
1.56,7.22329372751784,17.1969337480045
1.57,7.12005727127767,17.2992159912835
1.58,7.02176983445045,17.3972380038325
1.59,6.9262183965631,17.491120743989
1.6,6.83118993714253,17.5809851700903
1.61,6.73486639222467,17.6667527954312
1.62,6.63812881077255,17.7479771366583
1.63,6.54260010570715,17.8249999614971
1.64,6.44986378499659,17.8982290111776
1.65,6.36150335660899,17.9680720269297
1.66,6.27910232851245,18.0349367499833
1.67,6.20424420867509,18.0992309215682
1.68,6.13878963300735,18.1582775542093
1.69,6.08250004814181,18.2091597891029
1.7,6.03330444053687,18.2540270820976
1.71,5.98912338858393,18.2950648513458
1.72,5.9478774706744,18.3344585149997
1.73,5.90748726519969,18.3743934912117
1.74,5.866506377428,18.4165056704136
1.75,5.83301763560917,18.4539470460598
1.76,5.80825150451795,18.4853360694405
1.77,5.78982700293315,18.5123637813178
1.78,5.77536314963361,18.5367212224539
1.79,5.76247896339813,18.560099433611
1.8,5.74879346300554,18.5841894555512
1.81,5.73192566723466,18.6106823290365
1.82,5.71068690154082,18.6404724550934
1.83,5.69177558823722,18.6691153434349
1.84,5.67584079764829,18.6960914699971
1.85,5.66190152823457,18.7219607852592
1.86,5.64897677845657,18.7472832397003
1.87,5.63608554677482,18.7726187837999
1.88,5.62224683164986,18.798527368037
1.89,5.60936949686426,18.8235764566785
1.9,5.60034830709992,18.8458002264568
1.91,5.59382610139072,18.8662595666413
1.92,5.58841388645706,18.8860376716041
1.93,5.58272266901934,18.906217735717
1.94,5.57536345579796,18.9278829533522
1.95,5.56510208356241,18.9515846637906
1.96,5.55314503510006,18.9716485124364
1.97,5.54033223315321,18.9883095275032
1.98,5.52696913746491,19.0041966661726
1.99,5.51336120777823,19.0219388856261
2,5.49981390383622,19.0441651430453
2.01,5.48661770549547,19.0731361993841
2.02,5.4736229112839,19.102357356473
2.03,5.46066298479125,19.1301752637274
2.04,5.44769473547271,19.158757462726
2.05,5.43467497278346,19.1902714950475
2.06,5.42156050617865,19.2268849022707
2.07,5.40830814511347,19.2707652259742
2.08,5.39387129961031,19.3184616562149
2.09,5.37787842108242,19.3665195023536
2.1,5.36140119469726,19.4175923058753
2.11,5.34551155008576,19.4743347845689
2.12,5.33128141687883,19.539401656223
2.13,5.31853577715749,19.6110131507349
2.14,5.30599881177414,19.6852008223377
2.15,5.29398562041813,19.7648336520837
2.16,5.28283041177432,19.8528549037575
2.17,5.27279415927984,19.9516649665361
2.18,5.26341882387092,20.0579786075111
2.19,5.25465645081688,20.1708646362252
2.2,5.24663145845529,20.2905997480477
2.21,5.2394682651237,20.4174606383481
2.22,5.23324267031983,20.5515633688438
2.23,5.22780561470592,20.6924761622921
2.24,5.22317828654108,20.8406077428386
2.25,5.21948127272169,20.9965865325097
