"depth.grid","Temp.smt","Sal.smt"
0.07,9.31049978058335,5.21860324709523
0.08,9.33482287728704,5.21625798537476
0.09,9.35672035650991,5.21415266267136
0.1,9.3762271553697,5.21228350943978
0.11,9.39355622185611,5.21062826542679
0.12,9.40884340721525,5.20917296156861
0.13,9.42222207344996,5.2079038924754
0.14,9.43382558256308,5.20680735275732
0.15,9.44378729655748,5.20586963702451
0.16,9.45224057743599,5.20507703988712
0.17,9.45931878720146,5.2044158559553
0.18,9.46515521272536,5.2038723871474
0.19,9.46896239668513,5.20352269987383
0.2,9.47017219630752,5.20342232000388
0.21,9.46919656907133,5.20353163159944
0.22,9.4664474724554,5.20381101872242
0.23,9.46233686393855,5.20422086543468
0.24,9.45727670099959,5.20472155579812
0.25,9.45167894111735,5.20527347387462
0.26,9.44595554177066,5.20583700372608
0.27,9.44051846043833,5.20637252941439
0.28,9.43577965459919,5.20684043500142
0.29,9.43215108173205,5.20720110454907
0.3,9.4299283246674,5.20742365182691
0.31,9.42817769060324,5.20757721504139
0.32,9.42654532112257,5.20770269151818
0.33,9.42495896266511,5.20782143934072
0.34,9.42334636167055,5.20795481659248
0.35,9.42163526457861,5.20812418135688
0.36,9.41990301538304,5.20831924110591
0.37,9.41828676712195,5.20851052777022
0.38,9.41674716061661,5.20870203753359
0.39,9.41524422295954,5.20889788994821
0.4,9.41373798124324,5.20910220456628
0.41,9.41218846256022,5.20931910094002
0.42,9.41055569400298,5.20955269862161
0.43,9.40879970266403,5.20980711716328
0.44,9.40688051563587,5.21008647611722
0.45,9.40475816001103,5.21039489503563
0.46,9.40239107294373,5.21073726804331
0.47,9.39976189664227,5.21111927195826
0.48,9.39691939132475,5.21153551729794
0.49,9.39391919379729,5.21197899444132
0.5,9.39081694086601,5.21244269376739
0.51,9.38766826933704,5.21291960565514
0.52,9.38452881601651,5.21340272048354
0.53,9.38145421771053,5.21388502863159
0.54,9.37850011122525,5.21435952047826
0.55,9.37572213336677,5.21481918640255
0.56,9.37311509552526,5.21526211722435
0.57,9.37058755790869,5.21569563580822
0.58,9.36812151755337,5.21612240380367
0.59,9.36570062500677,5.21654495756432
0.6,9.36330853081637,5.2169658334438
0.61,9.36092888552965,5.21738756779575
0.62,9.35854533969409,5.21781269697378
0.63,9.35614154385717,5.21824375733152
0.64,9.3537075224847,5.21866596005736
0.65,9.35132669097337,5.21884851642466
0.66,9.34899489626482,5.21888599296352
0.67,9.34666693177199,5.21899606657513
0.68,9.34429759090787,5.21939641416067
0.69,9.34190232323792,5.22011373412075
0.7,9.3395414090575,5.22095463275719
0.71,9.33719826880469,5.22191552026118
0.72,9.33485560296727,5.22299484978863
0.73,9.33249611203299,5.22419107449545
0.74,9.33010249648963,5.22550264753756
0.75,9.32765745682495,5.22692802207086
0.76,9.32514369352672,5.22846565125128
0.77,9.32254390708271,5.23011398823473
0.78,9.31987006321902,5.23188373116989
0.79,9.31715787476752,5.23378108890464
0.8,9.31439727749962,5.23578257701234
0.81,9.3115774386702,5.23786430637806
0.82,9.30868752553419,5.24000238788686
0.83,9.30571670534646,5.24217293242381
0.84,9.30265414536193,5.24435205087399
0.85,9.29948901283549,5.24651585412246
0.86,9.29621047502203,5.24864045305429
0.87,9.29280769917648,5.25070195855456
0.88,9.28916100025421,5.25270108035139
0.89,9.28519314634201,5.2546674061757
0.9,9.28099755647458,5.2566142354961
0.91,9.27666801108325,5.25855481257413
0.92,9.27229829059936,5.26050238167133
0.93,9.26798217545424,5.26247018704926
0.94,9.26381344607922,5.26447147296947
0.95,9.25988588290564,5.26651948369349
0.96,9.25629326636483,5.26862746348289
0.97,9.25312916814032,5.27080824626367
0.98,9.25022075377103,5.27263684239679
0.99,9.24741433893365,5.27405016218432
1,9.24479000450799,5.2755211084735
1.01,9.24242783137388,5.27752258411163
1.02,9.24045226320462,5.28033824923809
1.03,9.23908990766095,5.2832842837779
1.04,9.2382308478464,5.28632984964277
1.05,9.23772131642334,5.28958068329731
1.06,9.23740754605416,5.29314252120613
1.07,9.23713576940122,5.29712109983384
1.08,9.2367522191269,5.30162215564504
1.09,9.23610312789358,5.30675142510436
1.1,9.23503472836363,5.3126146446764
1.11,9.23349669071362,5.31965419750275
1.12,9.23183688356423,5.32891800799262
1.13,9.23005549079945,5.33940021043316
1.14,9.22810098003163,5.34987750863769
1.15,9.22592181887316,5.35912660641947
1.16,9.22347190648936,5.36711327857
1.17,9.22075833214133,5.3752612416429
1.18,9.21781567684074,5.38338780427195
1.19,9.21467867781069,5.39127642650075
1.2,9.21138207227427,5.39871056837293
1.21,9.20796059745458,5.40547368993212
1.22,9.2044489905747,5.41134925122191
1.23,9.20088198885773,5.41612071228595
1.24,9.19729432952675,5.41957153316783
1.25,9.19374503328398,5.42097335751257
1.26,9.19023650008043,5.42052422390935
1.27,9.18670300782701,5.41969908968037
1.28,9.18307839343287,5.41991564060515
1.29,9.17931138233733,5.42048764427096
1.3,9.17541676358706,5.42084968260076
1.31,9.17142313316621,5.42116710532256
1.32,9.16735908705897,5.42160526216435
1.33,9.1632532212495,5.42232950285415
1.34,9.15913413172195,5.42350517711994
1.35,9.15516283556113,5.42479844945732
1.36,9.15173282043696,5.42466970878525
1.37,9.1485170779795,5.42387236238685
1.38,9.14511776259972,5.42340611789035
1.39,9.14113702870861,5.42427068292396
1.4,9.13617703071714,5.42746576511591
1.41,9.12983992303631,5.43399107209442
1.42,9.12321321325218,5.441393793195
1.43,9.11731010527489,5.44712653599998
1.44,9.11075086377537,5.45403621657258
1.45,9.10214308870553,5.46499871093152
1.46,9.09009438001726,5.48288989509551
1.47,9.07321233766244,5.51058564508326
1.48,9.05046551999708,5.54539356693826
1.49,9.02332913437305,5.58167865499093
1.5,8.99433434935463,5.62827638611546
1.51,8.96499126940388,5.69056716206356
1.52,8.93285526342179,5.75838020128128
1.53,8.89858749104285,5.8327324436268
1.54,8.86330853789571,5.91635782176748
1.55,8.82813898960903,6.01199026837069
1.56,8.79419943181145,6.1223637161038
1.57,8.76261045013162,6.25021209763417
1.58,8.73459635433025,6.39752503208545
1.59,8.71541577526497,6.5314207202951
1.6,8.70267633412266,6.65617420710646
1.61,8.68964831911635,6.80393499362434
1.62,8.66960201845908,7.00685258095356
1.63,8.63751515452246,7.29235485751417
1.64,8.59891883160689,7.64992576869448
1.65,8.55543476491595,8.06671565147885
1.66,8.50749299186371,8.53229126413185
1.67,8.45552354986424,9.03621936491806
1.68,8.39995647633162,9.56806671210206
1.69,8.34122180867993,10.1174000639484
1.7,8.27974958432322,10.6737861787217
1.71,8.21596984067559,11.2267918146864
1.72,8.1503126151511,11.7659837301073
1.73,8.0822468028246,12.2886939681319
1.74,8.0016509524342,12.8751865896786
1.75,7.91204522506434,13.5071878947716
1.76,7.82152745323706,14.1308299997035
1.77,7.73819546947442,14.6922450207665
1.78,7.66876092418665,15.1453112016709
1.79,7.60585785157414,15.5277969205864
1.8,7.54701967842197,15.8599190116515
1.81,7.49245256279776,16.1479232312096
1.82,7.44236266276915,16.3980553356035
1.83,7.39695613640377,16.6165610811763
1.84,7.35643914176924,16.8096862242712
1.85,7.3210178369332,16.9836765212312
1.86,7.29114317563978,17.1441994822912
1.87,7.27212969022859,17.2822820782036
1.88,7.26261777897122,17.3965865703867
1.89,7.2579915381979,17.4922260446195
1.9,7.25363506423887,17.5743135866812
1.91,7.24493245342435,17.647962282351
1.92,7.22726780208458,17.7182852174079
1.93,7.19671089630422,17.7831769727393
1.94,7.15478597535871,17.8214442369728
1.95,7.10486210953563,17.8407275328842
1.96,7.05022695245041,17.8517897980624
1.97,6.99416815771849,17.8653939700962
1.98,6.93997337895527,17.8923029865745
1.99,6.89032238756513,17.9318914475768
2,6.84310693562288,17.9567238466789
2.01,6.79565849845578,18.0191337781904
2.02,6.74973163081009,18.1224007837506
2.03,6.70613607521905,18.2453232373143
2.04,6.66246658503436,18.3966894258298
2.05,6.61631791360768,18.5852876362458
2.06,6.56549870462006,18.8205192742989
2.07,6.51725267375894,19.1292415461179
2.08,6.46639041873407,19.4739324186169
2.09,6.39971930772625,19.8057162573621
2.1,6.31336452673616,20.1729950672598
2.11,6.21363426085802,20.5643883344247
2.12,6.10733869458702,20.9548242251469
2.13,6.0012880124184,21.3192309057167
2.14,5.90229239884735,21.6325365424245
2.15,5.81417103839905,21.8728048184222
2.16,5.71592043951902,22.0609849709797
2.17,5.62325233616403,22.2137138630496
2.18,5.56151747744781,22.336699704124
2.19,5.53181866404385,22.4049315546632
2.2,5.52284725754338,22.4258174282497
2.21,5.52483082633541,22.4177991194954
2.22,5.52799693880899,22.3993184230125
2.23,5.52257316335316,22.388817133413
2.24,5.50242699211525,22.3920649440798
2.25,5.47546608828259,22.3801177806936
2.26,5.4439990862256,22.3599777557535
2.27,5.40949996390632,22.3421951011365
2.28,5.37344269928683,22.3373200487192
2.29,5.33730127032918,22.3559028303787
2.3,5.30233864712457,22.4068173756317
2.31,5.26830405667879,22.4846160471365
2.32,5.23540349962111,22.5838321159347
2.33,5.20402638523827,22.7001853291278
2.34,5.17456212281699,22.8293954338173
2.35,5.147400121644,22.9671821771046
2.36,5.12292979100603,23.1092653060913
2.37,5.1029764097576,23.2702580851916
2.38,5.08816786397302,23.465770354973
2.39,5.0741721666143,23.6599280441221
2.4,5.05664505705063,23.8161631809078
2.41,5.03809659816604,23.9417261570758
2.42,5.02066987918814,24.0549221065168
2.43,5.00316928350961,24.1572780704733
2.44,4.98439919452308,24.2503210901875
2.45,4.96316399562123,24.335578206902
2.46,4.93826807019669,24.4145764618591
2.47,4.90851580164213,24.4888428963012
2.48,4.87265661169378,24.5595676974647
2.49,4.83010000598089,24.6256632388505
2.5,4.78224405210168,24.6875967121681
2.51,4.73070022865573,24.7462733537525
2.52,4.67708001424263,24.8025983999387
2.53,4.62299488746198,24.8574770870616
2.54,4.57005632691336,24.9118146514563
2.55,4.51987581119636,24.9665163294576
2.56,4.47406481891057,25.0224873574007
2.57,4.43298544752814,25.0796167388072
2.58,4.39410143738882,25.135423224438
2.59,4.35732404173616,25.1894035328483
2.6,4.32273541672759,25.2411930518219
2.61,4.29041771852055,25.2904271691424
2.62,4.26045310327246,25.3367412725935
2.63,4.23292372714076,25.3797707499587
2.64,4.20791174628288,25.4191509890219
2.65,4.18549931685625,25.4545173775665
2.66,4.16579084286984,25.4854694757443
2.67,4.15101456883651,25.5082731255733
2.68,4.14080355880206,25.5236584920988
2.69,4.13258399481512,25.5359678285793
2.7,4.12378205892429,25.549543388273
2.71,4.11218447741875,25.5681261175822
2.72,4.10028718954977,25.5875901923216
2.73,4.08910732890085,25.6062495521797
2.74,4.07858382742156,25.6242133385865
2.75,4.06865561706152,25.6415906929716
2.76,4.05926162977031,25.6584907567649
2.77,4.05034079749755,25.6750226713963
2.78,4.04183205219283,25.6912955782956
2.79,4.03367432580574,25.7074186188925
2.8,4.02571673400341,25.7235516574196
2.81,4.01764196095958,25.7398459334584
2.82,4.00970917251558,25.7559873503304
2.83,4.0022410007135,25.7716182211127
2.84,3.99556007759543,25.7863808588819
2.85,3.98998903520345,25.799917576715
2.86,3.98585050557966,25.8118706876889
2.87,3.98346712076614,25.8218825048803
2.88,3.98316151280499,25.8295953413661
2.89,3.98510493376421,25.8344239254793
2.9,3.98903816651088,25.8363170794037
2.91,3.99468317685633,25.8359763429542
2.92,4.00176282407513,25.8341079485509
2.93,4.0099999674419,25.8314181286136
2.94,4.01911746623122,25.8286131155622
2.95,4.0288381797177,25.8263991418169
2.96,4.03888496717592,25.8254824397975
2.97,4.04898373046322,25.8265588688975
2.98,4.05959324148309,25.8279228319282
2.99,4.0710483763555,25.8286302889296
3,4.08313762184339,25.8296736817004
3.01,4.09564946470972,25.8320454520391
3.02,4.1084559930736,25.8366417501139
3.03,4.12269517514427,25.8425603249393
3.04,4.13845090269839,25.849327649908
3.05,4.15528106778632,25.8569724339106
3.06,4.17274356245843,25.8655233858379
3.07,4.19039627876508,25.8750092145806
3.08,4.20779710875662,25.8854586290294
3.09,4.22450394448343,25.896900338075
3.1,4.24007467799585,25.9093630506083
3.11,4.25409810130702,25.9228909797786
3.12,4.26827002685453,25.9384519546813
3.13,4.28298455444419,25.9559448196068
3.14,4.29714095646137,25.9744388294661
3.15,4.30963850529149,25.9930032391701
3.16,4.3195211204536,26.0109123651103
3.17,4.32761847260883,26.0296420624229
3.18,4.33436671600958,26.0494536849165
3.19,4.33985779148208,26.0700504487485
3.2,4.34418363985254,26.0911355700764
3.21,4.34743620194717,26.1124122650576
3.22,4.34970741859218,26.1335837498497
3.23,4.35108923061378,26.1543532406101
3.24,4.35167357883819,26.1744239534964
3.25,4.35155240409162,26.193499104666
3.26,4.35082602731201,26.2112846018478
3.27,4.3505897823683,26.2279796207683
3.28,4.35081732159632,26.2440066965989
3.29,4.3504414445699,26.2595756592123
3.3,4.34839495086286,26.274896338481
3.31,4.34368138422214,26.2901841923624
3.32,4.33642128102356,26.3055840023076
3.33,4.32710467208729,26.3209583987401
3.34,4.31612541627826,26.3361299903803
3.35,4.30387737246143,26.3509213859489
3.36,4.29075439950173,26.3651551941663
3.37,4.2771503562641,26.3786540237529
3.38,4.2634591016135,26.3912404834294
3.39,4.25007449441487,26.4027371819161
3.4,4.23654519032442,26.4132412821046
3.41,4.22050444658925,26.4235135608857
3.42,4.20265637309285,26.4333663599574
3.43,4.1839879939313,26.4425221306377
3.44,4.16548633320069,26.4507033242444
3.45,4.1481384149971,26.4576323920954
3.46,4.1329312634166,26.4630317855087
3.47,4.12085190255529,26.466623955802
3.48,4.11287965795436,26.4681294706619
3.49,4.10900343112594,26.4672529417245
3.5,4.10837151422985,26.464211488353
3.51,4.11034463580025,26.4594145916435
3.52,4.11428352437132,26.4532717326925
3.53,4.11954890847722,26.446192392596
3.54,4.12550151665214,26.4385860524505
3.55,4.13150207743025,26.4308621933521
3.56,4.13691131934572,26.423430296397
3.57,4.14108997093273,26.4166998426816
3.58,4.14342004953781,26.4110601910236
3.59,4.14542730936794,26.4049733933039
3.6,4.1479872701237,26.3978361236291
3.61,4.15056319598965,26.3904438351914
3.62,4.15261835115035,26.3835919811829
3.63,4.15361599979037,26.3780760147959
3.64,4.15308947818307,26.3745542547684
3.65,4.1514714927527,26.3720437834694
3.66,4.14897874274427,26.3702253391643
3.67,4.14564327743047,26.3691674890808
3.68,4.14149714608399,26.3689388004467
3.69,4.13657239797753,26.3696078404897
3.7,4.13090108238377,26.3712431764376
3.71,4.12451524857542,26.3739133755182
3.72,4.11744694582516,26.3776870049591
3.73,4.10972822340568,26.3826326319882
3.74,4.10139113058968,26.3888188238332
3.75,4.09246771664985,26.3963141477219
3.76,4.08257440214344,26.4057671633682
3.77,4.07074088576166,26.4185045744785
3.78,4.05761242747213,26.433441880607
3.79,4.04394944461844,26.4493283493575
3.8,4.0305123545442,26.4649132483339
3.81,4.01806157459302,26.4789458451399
3.82,4.00705783773784,26.4906589861018
3.83,3.99598078265096,26.5024919081223
3.84,3.98457356846747,26.514860910817
3.85,3.97293264397713,26.5276134769547
3.86,3.96115445796968,26.540597089304
3.87,3.94933545923487,26.5536592306334
3.88,3.93757209656244,26.5666473837116
3.89,3.92596081874216,26.5794090313072
3.9,3.91459807456377,26.5917916561889
3.91,3.90358031281702,26.6036427411252
3.92,3.89300398229165,26.6148097688849
3.93,3.88296553177742,26.6251402222365
3.94,3.87356545654128,26.6344674409405
3.95,3.86496500497942,26.6422970699174
3.96,3.85702015298531,26.6488811015763
3.97,3.84947345484256,26.6548142601859
3.98,3.84206746483481,26.6606912700149
3.99,3.83454473724566,26.6671068553319
4,3.82665507779408,26.674483336248
4.01,3.81833567904721,26.6821352119877
4.02,3.80972263357052,26.6898661143411
4.03,3.80096158801253,26.6976266641652
4.04,3.79219818902178,26.705367482317
4.05,3.78357808324678,26.7130391896532
4.06,3.77524691733606,26.7205924070309
4.07,3.76735033793813,26.7279777553069
4.08,3.76003399170153,26.7351458553382
4.09,3.75344352527477,26.7420473279817
4.1,3.74772458530638,26.7486327940942
4.11,3.74302281844488,26.7548528745327
4.12,3.73947729226881,26.7606583848782
4.13,3.73705325159311,26.7660294479199
4.14,3.73562767703028,26.7710045509076
4.15,3.73509635544317,26.775628979588
4.16,3.73535507369465,26.7799480197078
4.17,3.73629961864756,26.7840069570137
4.18,3.73782577716477,26.7878510772525
4.19,3.73982933610913,26.7915256661708
4.2,3.7422060823435,26.7950760095153
4.21,3.74485180273075,26.7985473930328
4.22,3.74766228413372,26.80198510247
4.23,3.75053331341527,26.8054344235735
4.24,3.75337559983799,26.8089394771513
4.25,3.75658202316291,26.8124906682094
4.26,3.760289104707,26.8160545652651
4.27,3.7643910900026,26.8196094730366
4.28,3.76878222458208,26.8231336962418
4.29,3.77335675397778,26.826605539599
4.3,3.77800892372204,26.8300033078261
4.31,3.78263297934721,26.8333053056413
4.32,3.78712316638565,26.8364898377626
4.33,3.79137373036969,26.8395352089082
4.34,3.79527891683169,26.8424197237962
4.35,3.79873297130399,26.8451216871446
4.36,3.80177918896586,26.8475423567666
4.37,3.80474399232692,26.8495272091065
4.38,3.80762303882165,26.8511817095509
4.39,3.81039236677075,26.8526236922626
4.4,3.81302801449489,26.8539709914038
4.41,3.8155062796327,26.8553375987685
4.42,3.81782327179835,26.8566261851775
4.43,3.81999009351707,26.8577591092412
4.44,3.82201429586797,26.858754672797
4.45,3.8239034299302,26.8596311776824
4.46,3.82566504678288,26.8604069257346
4.47,3.82730669750514,26.8611002187911
4.48,3.82883593317612,26.8617293586893
4.49,3.83026030487494,26.8623126472666
4.5,3.83158736368073,26.8628683863603
4.51,3.83282569103069,26.8634134849918
4.52,3.8341037687085,26.8637872416687
4.53,3.83540396802236,26.8639742728191
4.54,3.83657897673219,26.8641236240597
4.55,3.8374819503404,26.8643819768843
4.56,3.83807269069166,26.8645462058871
4.57,3.8384201323688,26.864497420351
4.58,3.83857089687017,26.8643619848679
4.59,3.83857160569415,26.8642662640297
4.6,3.83846888033909,26.8643366224282
4.61,3.83830934230337,26.8646994246554
4.62,3.83813903225581,26.8654817019576
4.63,3.83795473617859,26.8667534957771
4.64,3.837689851318,26.868336094105
4.65,3.83729356502225,26.8701323070944
4.66,3.83678463301095,26.872402163285
4.67,3.83616102996796,26.8749698660687
4.68,3.83541684216403,26.8776164895741
4.69,3.83454615586992,26.8801231079299
4.7,3.83356152742708,26.8822827392578
4.71,3.83268381730776,26.8841350514404
4.72,3.83173633748071,26.8857209333727
4.73,3.83040446634097,26.8870261534962
4.74,3.82837565145629,26.8880234838702
4.75,3.82556668128176,26.8886393384528
4.76,3.82227898763612,26.8890071727863
4.77,3.81884848012846,26.8893013123644
4.78,3.81561080878926,26.8896620020326
4.79,3.81268627898579,26.8891510707754
4.8,3.80964348713131,26.8892755748022
4.81,3.80768966652541,26.8889267830383
4.82,3.80595949529338,26.8886854283557
4.83,3.8021251238169,26.8914250720454
4.84,3.79354646638201,26.9003812160551
4.85,3.77674655133431,26.9202514338415
4.86,3.76201200557554,26.9409509965485
4.87,3.75594606446437,26.9560634547772
4.88,3.76131059436622,26.9606038063106
4.89,3.76937383530685,26.9634577400479
4.9,3.7762031553877,26.9679038771361
4.91,3.7808104441093,26.9746866891013
4.92,3.78407735507904,26.9836748900207
4.93,3.7878957036428,26.9915176981675
4.94,3.79286852334235,26.9966036540998
4.95,3.79773226622361,27.0011493588297
4.96,3.79967855003557,27.0076341189802
4.97,3.79950176620925,27.0154335373224
4.98,3.80320843025611,27.0219523268402
4.99,3.81683387775852,27.0246542912656
5,3.8418740913698,27.0237269420331
5.01,3.87872782518059,27.0153063800129
5.02,3.91508716939106,27.0072978369636
5.03,3.93151058886898,27.0109129464284
5.04,3.93430832015626,27.0230522290768
5.05,3.9329580587026,27.0377593841699
5.06,3.93798456604202,27.0474870656988
5.07,3.95087058127023,27.0505226592229
5.08,3.96760531264421,27.0498150310109
5.09,3.98623495186621,27.0473466496399
5.1,4.00483431702527,27.0450648193996
5.11,4.02352857391474,27.0424698472046
5.12,4.0424372030425,27.0392877724539
5.13,4.06071643376941,27.0364688262782
5.14,4.07752249545639,27.0349632398082
5.15,4.09201161746432,27.0357212441747
5.16,4.10283932764429,27.0392742837922
5.17,4.11021647487755,27.0445120914956
5.18,4.117827455642,27.0504710515865
5.19,4.12640496967043,27.057261420868
5.2,4.13436696137238,27.0650674186277
5.21,4.14029230303471,27.0738567249849
5.22,4.14284865891674,27.0840548545336
