"depth.grid","Temp.smt","Sal.smt"
0.22,-0.00793702104286804,0.144365246067326
0.23,-0.00747234187729875,0.144270148957973
0.24,-0.00699167777785636,0.14419097381174
0.25,-0.00651325698723607,0.144131813118904
0.26,-0.00602927721880571,0.144091829909449
0.27,-0.00556323689105515,0.144074648402549
0.28,-0.00504267532781193,0.144069886469935
0.29,-0.00447491994717657,0.144077736854155
0.3,-0.00401744430253827,0.144119823197938
0.31,-0.00386068141274691,0.144238165617513
0.32,-0.00369593896216685,0.144365504273004
0.33,-0.00361363564683585,0.144538566017824
0.34,-0.00356059522829641,0.14469419086658
0.35,-0.00348165629936546,0.144772103834818
0.36,-0.00341270116325894,0.144796784212875
0.37,-0.00337702684917699,0.144794477110082
0.38,-0.00338369953979705,0.144780460307415
0.39,-0.00344211595176441,0.144769574200893
0.4,-0.00357998545833406,0.1447385756413
0.41,-0.00377810235471943,0.144682039813116
0.42,-0.0039905411814514,0.144621176237864
0.43,-0.00417137647906088,0.144577194437065
0.44,-0.00430492766135721,0.144543517546111
0.45,-0.00441977029222681,0.14450003103284
0.46,-0.00452525790745336,0.14446111183239
0.47,-0.00463058886003632,0.144441322714922
0.48,-0.00473315672733387,0.144459726949459
0.49,-0.0048430195601041,0.144508885861604
0.5,-0.00499731901671877,0.144557286657269
0.51,-0.00526136408248378,0.144624434189539
0.52,-0.00560132602591305,0.144717860174348
0.53,-0.00589198386823081,0.144773502104883
0.54,-0.00609069917693874,0.144734499390826
0.55,-0.0062328328232785,0.144667085517097
0.56,-0.00634837818309659,0.144563841620054
0.57,-0.00631263542559933,0.144478053004963
0.58,-0.00600797765320745,0.144320481746761
0.59,-0.00556243779258118,0.144133925716609
0.6,-0.00513112691769683,0.143995190056598
0.61,-0.00486915610253072,0.143981079908822
0.62,-0.00495737688329013,0.143984555646174
0.63,-0.00533209437377919,0.143933036684467
0.64,-0.00565092287359114,0.144311190436802
0.65,-0.00564643364415367,0.145727304792708
0.66,-0.00544485401063752,0.148027519801729
0.67,-0.00523717889765861,0.149991836701102
0.68,-0.00492740642978335,0.151822459094992
0.69,-0.00455661494852693,0.153321995260791
0.7,-0.0044173860350825,0.153961888027468
0.71,-0.00436389845166693,0.154142459132819
0.72,-0.00432967152564365,0.154258656903107
0.73,-0.00428086778979542,0.154140876145061
0.74,-0.00423127854785816,0.153886742079198
0.75,-0.00419573548720356,0.153607714587785
0.76,-0.00419230751478621,0.153411876567202
0.77,-0.0043160861719811,0.153249419364552
0.78,-0.00448495304164682,0.153046573945202
0.79,-0.00471887114130624,0.152825297759136
0.8,-0.00492135789545423,0.152511022033324
0.81,-0.00506062718006007,0.152096605491921
0.82,-0.00500676807581195,0.151637954211798
0.83,-0.00485452443584889,0.151015829880759
0.84,-0.00488280946005296,0.150018755561323
0.85,-0.00499388984108166,0.149119957295043
0.86,-0.00519601743179772,0.148859485949978
0.87,-0.0054491585399161,0.148629356421637
0.88,-0.00564315136133962,0.148587496655199
0.89,-0.0058098371712456,0.148756228984864
0.9,-0.00547627512031903,0.148840035506811
0.91,-0.00518766076296175,0.148796107890299
0.92,-0.00518924584328834,0.148662368693489
0.93,-0.00534647646087953,0.148498414902869
0.94,-0.00551556346618453,0.148367660695083
0.95,-0.00555409432634326,0.148336119994632
0.96,-0.00542298415654871,0.148439083314987
0.97,-0.00512996132521636,0.148584381562446
0.98,-0.00472535397389183,0.148651930859121
0.99,-0.00447619727090156,0.14865867258509
1,-0.00445014811760817,0.148672121769685
1.01,-0.00466141689585141,0.148659019091019
1.02,-0.00463165996725322,0.148567614401656
1.03,-0.00459438723656319,0.14852537839438
1.04,-0.00464126893991784,0.148690051968516
1.05,-0.00471190234465662,0.148782656222169
1.06,-0.00479648216876523,0.148744725256312
1.07,-0.00479117004573866,0.148588987336038
1.08,-0.0046096011171432,0.148640213315135
1.09,-0.0044013549725114,0.148547174304426
1.1,-0.00431567232485574,0.148376825570171
1.11,-0.00392838370361357,0.148552810534621
1.12,-0.003868758260002,0.148557058727682
1.13,-0.00434120650707908,0.14839976972832
1.14,-0.00451930133275785,0.148290881246564
1.15,-0.0043411401667145,0.148256355954082
1.16,-0.00411889705000956,0.148298253876329
1.17,-0.00417048686167691,0.148485172232428
1.18,-0.0042550104227272,0.148653740487197
1.19,-0.00415846809632395,0.148500333369486
1.2,-0.00417742745296998,0.148236244783791
1.21,-0.00430519176017583,0.148396757996998
1.22,-0.00431944208132533,0.148712220221817
1.23,-0.0039853760991056,0.148938254846038
1.24,-0.00381037517632656,0.149158925357537
1.25,-0.00391448639946895,0.148897799429014
1.26,-0.00411272360380246,0.148494996813436
1.27,-0.00422003121330081,0.148288999058089
1.28,-0.00415304499348992,0.14820319049238
1.29,-0.00414895339793103,0.148209047072546
1.3,-0.00440306791677163,0.148339006924749
1.31,-0.00447646499076134,0.148269116917972
1.32,-0.00443533264096167,0.148423709550853
1.33,-0.00437908658863857,0.148384724965867
1.34,-0.00420601282667323,0.148330009948748
1.35,-0.00408653152496525,0.148324413278619
1.36,-0.00404859933576422,0.148348620748927
1.37,-0.00408746865035437,0.148383561284628
1.38,-0.00421344719289385,0.148411192315219
1.39,-0.00437727253430595,0.148406921008674
1.4,-0.00450635293334487,0.148386583294274
1.41,-0.00448561437239642,0.148394977468592
1.42,-0.00431657470953783,0.148402775474361
1.43,-0.00421069689243068,0.148349352565605
1.44,-0.00426195755430074,0.148332456615172
1.45,-0.00420303268398031,0.148414623097777
1.46,-0.00422909094924814,0.148518255870255
1.47,-0.00446730273093584,0.14858354651857
1.48,-0.004528509834606,0.148579085004562
1.49,-0.00447533436205483,0.148533389397138
1.5,-0.0044838675418931,0.148485602760061
1.51,-0.0044214789559319,0.148419673361483
1.52,-0.00417999640232974,0.148409236696777
1.53,-0.00398642352024515,0.148442654764757
1.54,-0.00412959921307164,0.148564007455486
1.55,-0.00437911656424662,0.14843926256282
1.56,-0.00449438634465587,0.148218339330126
1.57,-0.00436171900748648,0.148158913651279
1.58,-0.00433101293621681,0.148352272403488
1.59,-0.00443128607036009,0.148516919479652
1.6,-0.0042652682419862,0.148536477251645
1.61,-0.00405470813277651,0.148542900662499
1.62,-0.00414278549675415,0.148558387013773
1.63,-0.00437398556359091,0.148493732517646
1.64,-0.00443121673117989,0.148290999198599
1.65,-0.0043855826133381,0.148069335240798
1.66,-0.00433154036081867,0.147899001815153
1.67,-0.00428400905310779,0.14781839865586
1.68,-0.00425815281184308,0.147866292204892
1.69,-0.00423963522928364,0.148072786442975
1.7,-0.00420506971663465,0.14828279483596
1.71,-0.00419359664716633,0.148378174355775
1.72,-0.00417433133106146,0.14842260386613
1.73,-0.00414123794007169,0.148395513347256
1.74,-0.00404689616930855,0.148376395983283
1.75,-0.00397251044042727,0.148371996461461
1.76,-0.00394517535766809,0.14835543656429
1.77,-0.00398288256159067,0.148329809100142
1.78,-0.00409765391602256,0.148367052223646
1.79,-0.00423395048946823,0.148442431625552
1.8,-0.00428577601568924,0.148255470479681
1.81,-0.0043064763355751,0.147983250236214
1.82,-0.00433727206003187,0.148027409976157
1.83,-0.00435242100007874,0.148190901671176
1.84,-0.00439302453895988,0.148430734866551
1.85,-0.00429235183495156,0.148393752215143
1.86,-0.00415793699576493,0.148227280459197
1.87,-0.0040945481446568,0.148082554130461
1.88,-0.00417582938274141,0.148044871553107
1.89,-0.00432053940645403,0.148055021313763
1.9,-0.00437793673677468,0.148103057292092
1.91,-0.0043746898762313,0.148129801501041
1.92,-0.00438638081251617,0.148149969294496
1.93,-0.0044257075450561,0.148173426157247
1.94,-0.00440903133728743,0.14814881767413
1.95,-0.00422672143869425,0.1479740882158
1.96,-0.00425871879007788,0.147929129181111
1.97,-0.00445152164879133,0.148119106052655
1.98,-0.0043671956926542,0.148104218947697
1.99,-0.00420671989744736,0.148038945835616
2,-0.00409468053832556,0.148058169087218
2.01,-0.00399605708005701,0.148103447445832
2.02,-0.00390977169060621,0.148107447685757
2.03,-0.00387818348439615,0.148004854444995
2.04,-0.00396242081416797,0.147920294610064
2.05,-0.00423905440159774,0.14809427068876
2.06,-0.00435360218971768,0.148356701639884
2.07,-0.00405634936378619,0.148162012512268
2.08,-0.00382129461321761,0.148132119599739
2.09,-0.00373397054449774,0.148132042864184
2.1,-0.00389018458808203,0.148112520319023
2.11,-0.00397798216807882,0.148111996609658
2.12,-0.00399718598745516,0.148124849279292
2.13,-0.00392539664497617,0.148151439521354
2.14,-0.00384040080603579,0.148184139626192
2.15,-0.00382890458100514,0.148235440867102
2.16,-0.00381824483210977,0.148265669972389
2.17,-0.00372781862012441,0.148086316084444
2.18,-0.00353864204564954,0.148096648932832
2.19,-0.00345668204106063,0.148115770958225
2.2,-0.00351484358643619,0.148128812216366
2.21,-0.00369705812398696,0.148131495566852
2.22,-0.00384053598055577,0.148135069805238
2.23,-0.00389431889977403,0.148126991517644
2.24,-0.00394553497405281,0.148154734097579
2.25,-0.00399515908120759,0.148214060565187
2.26,-0.00404046049775801,0.148271982145936
2.27,-0.00409610999964148,0.148319243916834
2.28,-0.00418320094504346,0.148385430336838
2.29,-0.00424500682056584,0.14843408210914
2.3,-0.00422774620407606,0.148419978524965
2.31,-0.00413237980062051,0.148330967805067
2.32,-0.00397929016192801,0.148220111411721
2.33,-0.00378476579843513,0.148142220478569
2.34,-0.00350895302647532,0.148096793567093
2.35,-0.00328359981930997,0.148102196047969
2.36,-0.00313056580714455,0.148165913719676
2.37,-0.00306651039823099,0.148219298097389
2.38,-0.00312323180506621,0.148186224756104
2.39,-0.0032024534664387,0.148132497527091
2.4,-0.00318350957822345,0.148109612737542
2.41,-0.00309394690616993,0.148102099316586
2.42,-0.00300219637082647,0.148089674148194
2.43,-0.00292924714153222,0.148063454210156
2.44,-0.00284875773749637,0.148033378885539
2.45,-0.00283717192019867,0.148020771371862
2.46,-0.0028881515036236,0.148031443262738
2.47,-0.00299214537276157,0.148084111825021
2.48,-0.00308873590527372,0.148147171582814
2.49,-0.00312687197116666,0.148200539696986
2.5,-0.00314085645714738,0.148238565655602
2.51,-0.00313635600332119,0.148265818410752
2.52,-0.00311934637668729,0.148272862022247
2.53,-0.00309580334424482,0.148250260549898
2.54,-0.00305036726969551,0.148156611240772
2.55,-0.00299459276185138,0.148021392761541
2.56,-0.00298303772332457,0.147946666027635
2.57,-0.0029972533251745,0.147904059522011
2.58,-0.00303712498884745,0.147937943730631
2.59,-0.00311009990183199,0.148038603950101
2.6,-0.00315606620991103,0.1481281999974
2.61,-0.00314639828032154,0.148172208806089
2.62,-0.00307376184117954,0.148177529786928
2.63,-0.00295292757105331,0.14816048579709
2.64,-0.00284849602850512,0.148153001691416
2.65,-0.00282023595353599,0.148177414867403
2.66,-0.00287296459878071,0.148219084251527
2.67,-0.00297522176756604,0.148268950973061
2.68,-0.00309490916722404,0.14831928896724
2.69,-0.00319992850508672,0.148362372169298
2.7,-0.0032599161220672,0.148391458356738
2.71,-0.00329423894627968,0.148422432861303
2.72,-0.0033142836899263,0.148452264424645
2.73,-0.00331435125509687,0.148466034062416
2.74,-0.00327620419584196,0.148446265732499
2.75,-0.0031608588729538,0.148385087649572
2.76,-0.00304499338396411,0.148319076428069
2.77,-0.00298539387757144,0.148264053839148
2.78,-0.00292389505433262,0.148177001512188
2.79,-0.00286734169704115,0.148089859272001
2.8,-0.00283006288666189,0.148041009522181
2.81,-0.00283657688522064,0.148030084172902
2.82,-0.00288593755318707,0.148017706319258
2.83,-0.00293423690179885,0.148025019657433
2.84,-0.00293770332871224,0.148075184051298
2.85,-0.00291524572346954,0.148223662583839
2.86,-0.00289298154926241,0.148428698112062
2.87,-0.00286837666012403,0.148598307632241
2.88,-0.0028306856411709,0.148670066189903
2.89,-0.00276025905094526,0.148696050544509
2.9,-0.00267317776365786,0.148692420646022
2.91,-0.0025880055511135,0.148669741592342
2.92,-0.00252330618511698,0.148638578481374
2.93,-0.00249764343747309,0.14860949641102
2.94,-0.00254346255485453,0.148580737489791
2.95,-0.00268753170293679,0.148520510281788
2.96,-0.0028121220293116,0.14847575755194
2.97,-0.00287708954955027,0.148490076772446
2.98,-0.00293841313490512,0.148540699625944
2.99,-0.00298465073197784,0.148584061672535
3,-0.00298809473818472,0.148628893893664
3.01,-0.00296480099844222,0.14869208576187
3.02,-0.00295882508964096,0.148701466467657
3.03,-0.00291850116788994,0.148707517197253
3.04,-0.00288848094606351,0.148697125328963
3.05,-0.00291035228004038,0.148652277744854
3.06,-0.0029700151742707,0.14856690255677
3.07,-0.00304545551904328,0.148459557769075
3.08,-0.00311680627044557,0.14835046427833
3.09,-0.00316420038456498,0.148259842981098
3.1,-0.00316858152478645,0.148205538318966
3.11,-0.00313037530214638,0.148171874102789
3.12,-0.00306416436259317,0.148151186476102
3.13,-0.00298393338164753,0.14814328754384
3.14,-0.00290366703483014,0.148147989410939
3.15,-0.0028373499976617,0.148165104182333
3.16,-0.00279896694566292,0.148194443962958
3.17,-0.00278954346483006,0.148252116414408
3.18,-0.00279500281431379,0.148334342383109
3.19,-0.0028076248833658,0.148408941205461
3.2,-0.00283185870714105,0.148462305152233
3.21,-0.00288528648405786,0.148522103786953
3.22,-0.00293685495623271,0.148564831576623
3.23,-0.00300397780077722,0.148591362596664
3.24,-0.00306376583397493,0.148601902177954
3.25,-0.00310163803986866,0.148574647864035
3.26,-0.00313244544527742,0.148521261450188
3.27,-0.00315913048815971,0.14846097754643
3.28,-0.00318463560647402,0.148413030762776
3.29,-0.00321394850700532,0.148387688152721
3.3,-0.00325242125878452,0.148365378403709
3.31,-0.00329390991538457,0.148344579406467
3.32,-0.00333151148486708,0.148325875054385
3.33,-0.00335832297529362,0.148309849240854
3.34,-0.00336756558595965,0.148297208685116
3.35,-0.00336195209640015,0.148294438079782
3.36,-0.00334578660707206,0.148298560143737
3.37,-0.00331945243862884,0.1483006514749
3.38,-0.00328333291172396,0.148291788671188
3.39,-0.00323494058390969,0.148260005685712
3.4,-0.00315829435620578,0.148189146395126
3.41,-0.00307672256860411,0.148123710933544
3.42,-0.0030010573254641,0.148096377241169
3.43,-0.00291179757522767,0.14807199622476
3.44,-0.0028521444122743,0.148069418628381
3.45,-0.0027865595418792,0.148067484540699
3.46,-0.00273729413517071,0.148083302872128
3.47,-0.00272224046970666,0.148148859795739
3.48,-0.00273335362866152,0.148281571835964
3.49,-0.00275552335466596,0.148440748727037
3.5,-0.00277372173078793,0.14858412974712
3.51,-0.00277301955667348,0.148670018938163
3.52,-0.0027510546842663,0.148706733298426
3.53,-0.00272031102803629,0.148719763637026
3.54,-0.00269231474870917,0.148716236116765
3.55,-0.00267859200701065,0.148703276900441
3.56,-0.00269081172134394,0.14868520306945
3.57,-0.00273020759139892,0.148649176927207
3.58,-0.00277692757509549,0.148604183850939
3.59,-0.00280915943643975,0.148564400685654
3.6,-0.00286047480819272,0.148525666118782
3.61,-0.00293922546496966,0.148480463200556
3.62,-0.00299792213129745,0.148434516579436
3.63,-0.00303334936028401,0.148395053148933
3.64,-0.00302830972594314,0.148352148070356
3.65,-0.00297958148936096,0.148311055354794
3.66,-0.00292040363703492,0.148273834809736
3.67,-0.0028808921737293,0.148241856384761
3.68,-0.00284280946966525,0.148215213942293
3.69,-0.00280154912410554,0.148194031596483
3.7,-0.00276605125569643,0.148178716911327
3.71,-0.00274525598308417,0.148169677450816
3.72,-0.00274810342491503,0.148167320778947
3.73,-0.0027901208675299,0.148179886643336
3.74,-0.00286438345252165,0.148207936677809
3.75,-0.002938458449171,0.148233979825959
3.76,-0.00298077712873754,0.148240401465462
3.77,-0.00299395283834445,0.14821752944164
3.78,-0.00299298184993465,0.148177424966181
3.79,-0.0029860730398058,0.148135598328458
3.8,-0.00298143528425556,0.148107559817847
3.81,-0.00297887974327251,0.148110673743729
3.82,-0.00296489764328528,0.148146807788119
3.83,-0.00295309479490145,0.148192186366741
3.84,-0.0029588801922334,0.148222017484788
3.85,-0.00299538478266247,0.148241348703691
3.86,-0.00304938011479485,0.148268622037913
3.87,-0.00309412008950801,0.148277781336531
3.88,-0.00314730180459671,0.148252345903297
3.89,-0.00317464612685617,0.148204135602619
3.9,-0.00318930849720879,0.148098993540532
3.91,-0.00319244259442181,0.147978260412035
3.92,-0.00318188131597792,0.147887504466777
3.93,-0.00315411074667251,0.147872217111054
3.94,-0.00308494482379388,0.147949754987796
3.95,-0.00300011453440927,0.148071172152596
3.96,-0.00294479966840046,0.148178148699756
3.97,-0.00295479961280958,0.148254959969685
3.98,-0.0029871171427128,0.148332921630118
3.99,-0.00300972414159494,0.148375861635156
4,-0.00304923733911134,0.14839925414867
4.01,-0.00308800044216198,0.148416933480468
4.02,-0.00310906481280605,0.148439589271587
4.03,-0.00312073263600992,0.148431581769436
4.04,-0.00312959419700208,0.14842109845963
4.05,-0.00313202740590604,0.148459859132593
4.06,-0.00312035446147267,0.148540253972402
4.07,-0.00310675284514853,0.148608209021529
4.08,-0.00310196684378305,0.14862136981094
4.09,-0.00310276731971572,0.148595843098296
4.1,-0.00310731598845739,0.148544311647705
4.11,-0.00311422495623517,0.14847771200557
4.12,-0.00312210632927615,0.148406980718292
4.13,-0.00312972145945191,0.148340221321103
4.14,-0.00313853721856829,0.14823320211546
4.15,-0.00314826109216821,0.148170084572696
4.16,-0.00316851513604835,0.148130879627744
4.17,-0.00318099290197018,0.14812463055416
4.18,-0.00320490149286357,0.148189666349454
4.19,-0.00322405244888207,0.148287710260619
4.2,-0.00320241492232128,0.148365436076965
4.21,-0.00313291549571794,0.148466243177971
4.22,-0.00307066708663543,0.148535973666554
4.23,-0.00300107209962533,0.148584039709102
4.24,-0.00292936574487859,0.148622222966697
4.25,-0.00287947199301313,0.148643399758722
4.26,-0.00284073876129456,0.148639374682195
4.27,-0.00280602850683382,0.14861678300732
4.28,-0.00278464787891207,0.148587633984315
4.29,-0.00278590352681045,0.148563936863397
4.3,-0.00282721900933981,0.148545727124313
4.31,-0.00291416865612656,0.148518022590755
4.32,-0.00302078493647527,0.148485955054784
4.33,-0.00312046953367322,0.148455245183754
4.34,-0.00318662413100766,0.148431613645022
4.35,-0.00321003789124759,0.148420215966889
4.36,-0.00320711154248249,0.148419434187973
4.37,-0.00318197095968707,0.148424238256359
4.38,-0.00313861516404221,0.148429589233863
4.39,-0.00308104317672881,0.148430448182298
4.4,-0.00300402706479721,0.148417655305459
4.41,-0.00291970280072602,0.148401197097059
4.42,-0.00283755153793306,0.14838407187803
4.43,-0.00276252586153618,0.148376564691899
4.44,-0.00270927966733447,0.148381395594521
4.45,-0.00266919773059265,0.148387270830279
4.46,-0.00263979553891691,0.148406831799766
4.47,-0.00263137941051668,0.148435233122631
4.48,-0.0026421085270778,0.148464598037072
4.49,-0.00266435903558519,0.148490382659552
4.5,-0.00269050708302372,0.148508043106535
4.51,-0.0027148121734413,0.148514007465066
4.52,-0.00273871856767137,0.148511348694272
4.53,-0.00275964931999476,0.148504650689657
4.54,-0.00277488978942522,0.148498519238719
4.55,-0.00279355602918063,0.148498846514009
4.56,-0.00281226890187316,0.148498535719471
4.57,-0.00282051451257142,0.14848728828551
4.58,-0.00281899473874066,0.148471020302313
4.59,-0.00281209448016411,0.148450029039618
4.6,-0.00280230171914744,0.148413500110572
4.61,-0.00278996690734137,0.148348936606006
4.62,-0.00277485527035905,0.148272334406552
4.63,-0.00275675053715112,0.148201194970124
4.64,-0.00273514995156785,0.148151908582734
4.65,-0.00269715652843287,0.148082296902586
4.66,-0.00264952975797114,0.147994771545174
4.67,-0.00261122547638915,0.147933211366922
4.68,-0.00260119951989337,0.147941495224253
4.69,-0.00263840772469032,0.148063501973592
4.7,-0.00279337541699653,0.148315427708728
4.71,-0.00311232486371403,0.148584351029962
4.72,-0.00339576087956432,0.148746470729783
4.73,-0.00343326550617906,0.148680041508932
4.74,-0.00299804990663656,0.148282277352009
4.75,-0.00292680633829349,0.148589882801251
4.76,-0.00298910338438688,0.148450268704312
4.77,-0.00264031547332648,0.148703765883432
4.78,-0.00272629006454564,0.148942508053678
